ch1,ch2,ch3,ch4,ch5,ch6,ch7,ch8,ts
26,28,35,74,164,35,22,24,1560803741.269772
26,27,38,83,175,36,26,25,1560803741.2922802
23,28,40,77,162,36,25,23,1560803741.314775
25,28,39,77,160,36,26,23,1560803741.329804
27,27,35,76,165,37,25,23,1560803741.352232
24,25,34,72,163,33,26,22,1560803741.37476
25,24,36,66,154,34,24,22,1560803741.397917
25,22,35,63,136,34,26,22,1560803741.412277
23,22,32,62,128,42,27,22,1560803741.434952
21,23,35,58,121,44,28,23,1560803741.457912
22,24,36,60,119,46,26,25,1560803741.480469
21,26,31,58,131,43,27,26,1560803741.494735
24,27,37,57,137,47,28,26,1560803741.517996
24,26,39,55,162,43,27,26,1560803741.540183
26,28,39,54,178,43,27,26,1560803741.554741
25,27,39,53,176,43,27,21,1560803741.577943
26,27,45,56,162,52,27,21,1560803741.600417
24,24,38,53,156,48,25,21,1560803741.614763
25,28,39,54,136,46,25,20,1560803741.645242
25,26,38,61,116,43,24,19,1560803741.6521301
26,26,40,60,115,45,24,22,1560803741.6828609
23,24,31,57,111,36,22,22,1560803741.6979349
23,25,32,60,128,39,22,22,1560803741.7122118
22,22,31,61,119,40,22,21,1560803741.734825
21,21,29,55,137,40,22,22,1560803741.7579849
20,22,31,57,132,38,24,20,1560803741.780515
23,23,32,55,153,37,24,20,1560803741.7954528
31,31,31,67,170,65,29,27,1560803741.817773
35,33,29,67,170,71,33,32,1560803741.832057
35,33,28,64,151,74,32,31,1560803741.855284
36,33,25,69,189,76,33,32,1560803741.885299
37,34,23,68,173,78,33,32,1560803741.892064
32,27,38,56,153,56,28,25,1560803741.915912
26,26,45,68,182,57,24,20,1560803741.93793
28,28,46,72,188,57,25,23,1560803741.952271
27,27,45,67,146,54,21,21,1560803741.975453
24,26,48,75,158,50,23,21,1560803742.005738
24,29,38,80,164,51,23,22,1560803742.013752
25,27,29,69,140,41,22,21,1560803742.035444
23,26,29,67,167,37,22,21,1560803742.0578089
25,28,35,78,223,46,24,22,1560803742.07211
26,28,33,74,218,49,24,24,1560803742.102801
25,27,34,73,222,54,28,25,1560803742.125669
24,25,34,74,222,53,28,26,1560803742.141725
25,25,34,78,225,52,28,25,1560803742.155434
22,24,30,66,184,45,26,25,1560803742.178423
24,22,32,64,181,52,24,23,1560803742.192237
27,20,32,58,177,48,21,23,1560803742.215373
27,23,34,55,173,53,22,23,1560803742.245492
26,23,34,49,146,58,21,24,1560803742.252383
32,24,39,55,136,56,23,24,1560803742.2754688
31,27,44,64,138,47,24,25,1560803742.305202
29,28,45,69,143,51,24,27,1560803742.313796
28,26,44,73,148,51,23,25,1560803742.335546
28,32,66,84,164,54,25,25,1560803742.3577812
23,32,64,83,166,55,25,26,1560803742.380452
21,34,61,78,160,58,25,26,1560803742.395376
26,33,62,84,207,54,28,28,1560803742.4177961
28,34,64,84,221,64,29,27,1560803742.440308
27,31,48,88,232,64,28,26,1560803742.4552732
27,32,52,87,230,66,29,25,1560803742.485281
30,30,52,85,241,68,30,26,1560803742.500262
25,30,53,78,199,70,28,20,1560803742.515923
26,31,53,75,178,62,28,21,1560803742.5377991
27,30,47,61,172,59,28,22,1560803742.560292
26,27,45,69,180,62,29,23,1560803742.575923
26,28,45,76,171,62,32,23,1560803742.598073
26,27,45,76,178,65,30,23,1560803742.620839
25,29,48,85,178,63,30,25,1560803742.6357481
23,30,50,90,167,59,30,23,1560803742.658235
25,31,49,84,155,56,28,21,1560803742.680852
23,30,49,79,150,49,25,22,1560803742.703644
24,31,52,85,142,67,29,24,1560803742.718154
27,32,57,77,143,68,26,25,1560803742.7407632
28,32,69,83,126,71,28,26,1560803742.755774
29,31,69,88,149,73,30,28,1560803742.778167
32,32,69,91,181,76,30,28,1560803742.801158
32,32,68,89,180,74,30,29,1560803742.840971
31,31,63,103,227,70,31,27,1560803742.8425438
30,29,48,92,222,66,32,27,1560803742.860784
29,33,52,90,212,65,32,25,1560803742.875101
26,33,56,97,227,66,33,26,1560803742.898209
28,34,60,91,223,53,31,26,1560803742.936348
25,32,56,73,187,54,29,27,1560803742.9380322
26,32,57,76,201,57,27,26,1560803742.9582849
25,29,56,71,199,57,23,25,1560803742.980674
27,25,52,58,164,54,22,25,1560803742.995089
29,25,46,70,166,48,23,24,1560803743.01828
32,29,47,81,165,53,24,22,1560803743.0407
34,30,45,75,165,51,24,22,1560803743.055285
34,28,40,75,164,50,25,25,1560803743.0781732
33,31,43,80,171,51,25,23,1560803743.101326
29,30,39,71,176,46,24,24,1560803743.115123
29,27,38,59,161,52,26,24,1560803743.138799
26,27,41,66,168,51,25,25,1560803743.1617
26,27,44,70,174,56,26,25,1560803743.175213
27,25,44,64,154,59,29,25,1560803743.205925
26,23,46,69,160,62,30,24,1560803743.221085
25,25,44,74,170,57,29,25,1560803743.234966
27,26,43,74,161,70,31,26,1560803743.258242
26,28,39,78,153,65,31,24,1560803743.281223
28,31,34,77,152,62,28,27,1560803743.310774
29,33,31,81,177,60,26,27,1560803743.3182619
29,32,32,76,176,59,29,26,1560803743.340934
26,30,35,80,201,55,26,25,1560803743.363333
27,30,36,76,213,59,28,25,1560803743.378357
26,28,40,76,213,65,27,23,1560803743.400558
26,28,41,67,172,69,29,25,1560803743.423262
25,26,42,74,178,70,27,24,1560803743.43829
26,28,40,67,140,65,27,24,1560803743.461318
24,28,38,62,124,62,25,25,1560803743.483294
24,26,34,61,133,57,27,25,1560803743.505873
24,25,39,58,161,54,24,24,1560803743.52078
24,25,39,47,142,54,25,25,1560803743.5433009
23,27,44,75,223,76,27,25,1560803743.558244
26,27,47,79,223,78,28,25,1560803743.581429
25,28,49,78,219,80,28,23,1560803743.6034448
27,29,45,85,203,80,28,22,1560803743.619058
27,30,44,85,212,84,27,23,1560803743.6417198
28,28,36,59,119,63,25,23,1560803743.662739
26,27,29,54,120,59,24,24,1560803743.679334
28,29,26,56,134,58,26,27,1560803743.700123
24,30,27,58,169,59,26,28,1560803743.722742
25,31,30,74,161,53,27,28,1560803743.7405062
24,30,31,76,159,52,28,30,1560803743.76178
25,33,35,75,160,53,28,29,1560803743.7826312
25,29,37,73,151,51,24,27,1560803743.799377
24,27,34,67,153,57,24,27,1560803743.820193
23,25,32,54,163,55,22,26,1560803743.842785
23,24,31,56,167,61,22,21,1560803743.8653119
22,22,27,67,181,65,24,22,1560803743.880053
24,23,27,69,180,65,26,22,1560803743.902701
25,22,36,67,150,60,26,21,1560803743.919252
25,22,38,67,166,58,27,21,1560803743.940114
25,24,40,63,173,58,27,22,1560803743.9790108
25,23,40,60,154,55,27,21,1560803743.9806669
22,25,40,68,179,59,30,25,1560803744.000083
24,24,32,77,176,56,31,29,1560803744.022689
28,29,32,92,214,56,33,35,1560803744.0393
28,28,32,100,232,69,35,36,1560803744.061704
30,30,34,99,250,89,38,38,1560803744.099581
30,31,34,96,247,95,39,35,1560803744.105214
34,35,37,93,248,103,40,34,1560803744.120077
31,33,36,107,252,116,41,30,1560803744.1425529
32,35,38,99,229,109,41,30,1560803744.1591241
31,34,40,99,216,95,37,28,1560803744.180276
31,33,46,99,205,88,35,28,1560803744.21025
27,28,44,99,207,85,37,25,1560803744.219191
27,29,43,72,148,69,35,24,1560803744.240173
27,29,43,82,192,64,34,26,1560803744.262809
27,29,39,80,184,60,35,27,1560803744.293564
26,28,30,77,191,58,33,27,1560803744.3002698
26,29,34,83,197,46,34,31,1560803744.324636
27,31,43,80,200,45,34,33,1560803744.345318
27,32,51,73,167,39,33,32,1560803744.360171
27,33,53,75,169,46,35,35,1560803744.382804
28,36,54,86,167,49,36,35,1560803744.405097
29,39,54,82,168,59,32,33,1560803744.4202778
31,38,50,95,229,67,29,30,1560803744.442605
34,37,41,100,254,71,28,31,1560803744.466785
34,36,41,102,259,69,27,30,1560803744.4801881
34,34,44,94,270,73,26,30,1560803744.502677
33,33,43,100,298,74,30,30,1560803744.525284
30,31,43,90,286,69,31,31,1560803744.5476449
42,34,43,88,278,69,35,29,1560803744.562727
55,35,41,88,285,72,46,31,1560803744.585205
59,41,42,91,306,68,48,33,1560803744.6002939
59,43,42,81,288,62,47,30,1560803744.622753
60,41,45,78,266,62,52,35,1560803744.645267
54,43,47,90,301,71,56,37,1560803744.667726
45,46,52,90,296,70,49,36,1560803744.682748
57,40,50,85,254,66,48,34,1560803744.714285
68,47,51,88,262,71,51,41,1560803744.735088
69,48,61,113,274,84,52,39,1560803744.750319
69,46,63,106,221,75,47,40,1560803744.765493
74,56,70,108,227,76,48,42,1560803744.787776
65,58,75,135,276,94,58,46,1560803744.802665
54,50,76,137,277,93,55,40,1560803744.825078
54,54,74,118,274,84,54,40,1560803744.841835
52,53,73,113,285,91,57,39,1560803744.862781
42,40,63,116,293,92,58,36,1560803744.885186
38,37,60,85,250,75,48,31,1560803744.900143
39,40,59,83,228,68,47,31,1560803744.9228618
36,35,56,95,219,69,44,32,1560803744.945242
40,38,53,94,217,60,37,31,1560803744.960225
44,45,62,97,209,59,31,32,1560803744.9821038
47,52,67,99,204,62,34,32,1560803745.012521
45,52,70,93,212,66,36,32,1560803745.02105
46,51,66,85,192,60,35,31,1560803745.0420349
48,50,66,94,193,67,36,30,1560803745.064535
43,45,57,85,198,64,35,26,1560803745.0798562
41,36,49,80,197,64,34,26,1560803745.1026368
43,31,41,78,189,60,36,27,1560803745.126665
41,34,43,73,204,58,35,25,1560803745.140117
36,32,37,66,199,59,34,28,1560803745.162627
34,30,39,59,187,63,35,29,1560803745.186898
37,31,34,60,190,62,33,29,1560803745.207864
34,35,35,66,205,71,35,31,1560803745.2226632
38,35,46,70,233,73,34,33,1560803745.253394
38,40,50,71,228,66,36,33,1560803745.267833
44,47,57,83,233,66,36,34,1560803745.282851
41,46,62,90,241,66,36,35,1560803745.305218
40,45,66,93,239,58,31,31,1560803745.327843
45,44,63,90,233,64,31,29,1560803745.342771
42,42,70,90,235,66,26,25,1560803745.36683
37,33,63,84,216,58,23,23,1560803745.3877802
37,33,60,83,235,61,23,21,1560803745.4027472
37,30,56,80,237,64,25,20,1560803745.425258
23,30,48,79,198,58,24,20,1560803745.4483151
39,26,34,79,182,50,24,19,1560803745.462672
39,26,39,78,187,50,25,19,1560803745.485166
40,26,43,76,181,50,25,18,1560803745.507822
47,26,48,78,157,47,23,18,1560803745.522758
49,24,52,76,155,43,25,18,1560803745.545193
38,23,53,75,156,46,27,20,1560803745.5763721
35,22,52,71,151,47,28,20,1560803745.584959
34,22,48,68,107,44,33,28,1560803745.605219
27,22,43,60,102,43,33,30,1560803745.62785
27,24,51,61,147,60,33,33,1560803745.642815
35,35,61,57,144,64,33,36,1560803745.6651962
54,41,63,54,151,67,38,38,1560803745.707621
59,46,79,56,157,66,33,35,1560803745.711564
65,51,82,54,155,64,32,37,1560803745.724783
66,53,78,58,178,52,31,35,1560803745.747355
62,47,73,63,216,65,32,33,1560803745.762367
52,43,71,66,215,64,25,32,1560803745.785165
60,38,51,63,215,63,26,37,1560803745.807882
74,31,51,65,221,64,30,61,1560803745.8309462
75,28,51,63,179,63,29,64,1560803745.845152
76,29,51,61,133,45,27,64,1560803745.867789
74,31,55,62,161,46,28,65,1560803745.882845
88,30,56,65,161,45,32,94,1560803745.905323
79,35,70,69,154,46,32,83,1560803745.9359212
92,36,73,73,143,43,34,92,1560803745.94271
92,35,72,72,142,46,35,97,1560803745.965385
95,36,68,68,100,49,40,100,1560803745.987926
93,38,68,73,188,57,38,79,1560803746.002858
97,38,62,64,196,57,40,94,1560803746.025254
90,41,69,64,196,58,39,84,1560803746.0564609
90,43,67,63,194,54,39,98,1560803746.0644991
104,41,69,65,195,48,42,147,1560803746.093388
94,39,68,62,113,37,42,153,1560803746.107887
96,35,57,69,105,32,41,166,1560803746.130916
97,28,42,65,111,36,43,172,1560803746.145239
105,27,46,68,116,38,44,174,1560803746.176158
128,27,50,79,110,41,45,163,1560803746.19077
124,26,50,76,125,44,44,156,1560803746.2053869
118,26,53,71,125,46,42,133,1560803746.227734
137,28,50,76,131,43,45,134,1560803746.250951
141,28,56,77,126,45,43,120,1560803746.265177
124,32,65,73,135,44,37,101,1560803746.28776
137,31,69,79,123,41,37,118,1560803746.310981
144,32,66,82,125,39,35,118,1560803746.325244
122,33,69,76,117,38,28,111,1560803746.347758
141,32,70,80,117,33,33,136,1560803746.3708858
134,30,60,83,129,33,29,139,1560803746.385302
152,33,57,79,135,31,29,129,1560803746.40776
168,31,59,73,134,29,32,128,1560803746.431187
178,31,62,77,152,29,33,132,1560803746.445262
154,31,57,72,151,32,32,109,1560803746.467756
160,30,56,59,139,33,34,108,1560803746.49084
135,30,56,56,129,36,34,109,1560803746.50521
108,33,59,68,131,43,34,108,1560803746.527738
150,35,62,73,120,45,39,133,1560803746.550998
195,33,60,74,124,47,37,144,1560803746.56539
205,36,61,84,116,47,35,128,1560803746.587881
207,35,61,86,128,47,34,128,1560803746.611107
206,36,60,86,132,43,35,129,1560803746.63326
173,33,54,79,134,42,27,98,1560803746.647772
138,36,54,75,144,38,26,124,1560803746.671104
120,33,54,60,155,37,28,131,1560803746.685359
123,33,56,58,145,37,28,124,1560803746.707836
128,31,60,53,133,38,28,124,1560803746.731165
130,35,57,54,126,35,29,127,1560803746.753447
123,33,58,67,113,37,29,91,1560803746.767833
113,34,67,83,102,35,31,111,1560803746.791494
102,33,64,86,117,33,31,113,1560803746.80534
99,32,64,86,160,33,29,114,1560803746.835848
125,32,67,85,168,33,31,128,1560803746.852599
130,30,65,76,168,34,34,130,1560803746.865267
129,27,51,63,167,36,31,103,1560803746.887836
130,32,58,81,174,36,32,105,1560803746.910977
137,31,51,81,152,36,33,103,1560803746.925278
110,29,48,80,155,38,31,79,1560803746.947869
93,30,48,78,174,38,28,62,1560803746.978138
91,32,51,90,173,36,29,66,1560803746.987736
87,31,47,75,152,39,30,57,1560803747.007732
73,31,48,71,140,36,29,52,1560803747.031082
60,29,46,79,146,40,28,48,1560803747.053406
61,30,45,80,154,41,27,46,1560803747.0678349
63,26,42,65,191,45,25,27,1560803747.091098
61,26,39,63,207,43,25,27,1560803747.1145132
58,26,34,64,222,44,24,28,1560803747.1278858
60,29,33,78,258,47,26,28,1560803747.151098
62,29,35,89,250,51,28,25,1560803747.1734269
55,29,35,93,229,52,28,25,1560803747.187718
51,28,33,96,229,61,28,26,1560803747.210737
46,28,34,97,225,65,30,26,1560803747.233565
54,27,37,78,168,69,29,25,1560803747.2478368
46,26,36,64,185,70,27,27,1560803747.278504
47,27,38,67,187,71,30,29,1560803747.293549
47,26,37,63,192,66,28,28,1560803747.307637
80,27,40,71,212,71,26,26,1560803747.331415
96,27,39,81,229,66,28,28,1560803747.3533778
95,26,38,82,211,69,35,27,1560803747.383566
95,29,43,88,228,97,41,26,1560803747.390947
102,28,46,90,221,99,44,26,1560803747.413153
95,29,49,92,212,93,45,31,1560803747.42786
81,29,48,86,197,93,45,29,1560803747.4523802
82,31,56,87,196,89,39,29,1560803747.480932
88,28,53,94,202,77,37,29,1560803747.487689
105,30,55,91,188,76,33,34,1560803747.510979
99,27,48,85,168,78,33,29,1560803747.5335538
108,26,49,97,199,94,35,29,1560803747.556119
107,27,43,98,204,98,38,29,1560803747.57149
109,28,41,81,167,96,39,29,1560803747.593586
103,28,37,88,208,102,47,24,1560803747.615926
108,28,44,91,206,103,54,28,1560803747.631216
95,29,51,88,183,124,66,27,1560803747.653665
107,28,52,85,185,144,66,27,1560803747.67644
101,31,56,90,208,138,63,27,1560803747.6908019
84,31,54,89,197,138,60,29,1560803747.713625
83,34,58,93,201,142,59,26,1560803747.727806
105,36,55,88,199,131,44,31,1560803747.750854
98,38,55,99,196,107,41,34,1560803747.773471
109,36,54,100,178,115,44,33,1560803747.795891
117,39,58,98,150,113,43,32,1560803747.8108811
110,36,53,91,143,121,37,32,1560803747.8338962
97,34,52,95,124,101,37,30,1560803747.847872
115,36,47,83,123,101,38,28,1560803747.870899
115,38,44,86,155,96,40,33,1560803747.893584
122,40,47,82,159,126,52,34,1560803747.907778
121,41,48,77,164,133,71,35,1560803747.9312
122,42,48,77,194,147,76,34,1560803747.953402
103,39,48,79,185,146,76,33,1560803747.9678562
100,39,53,75,155,144,78,29,1560803747.991066
81,34,48,77,146,120,69,27,1560803748.014273
85,35,48,83,135,111,50,26,1560803748.036005
87,34,51,79,120,99,41,25,1560803748.051016
91,33,51,76,134,108,45,24,1560803748.073398
109,30,51,92,146,108,42,25,1560803748.112412
116,31,51,105,157,136,70,28,1560803748.11425
111,29,48,104,157,132,72,27,1560803748.141526
119,29,45,98,139,150,74,28,1560803748.156096
148,29,45,105,145,162,74,30,1560803748.170967
133,30,48,112,150,169,72,31,1560803748.1936018
128,31,54,104,152,145,44,29,1560803748.216042
142,31,54,108,160,141,44,29,1560803748.231176
131,31,54,110,177,172,49,30,1560803748.2532039
114,35,61,108,168,163,48,35,1560803748.2761118
112,33,55,90,166,157,47,33,1560803748.291118
121,36,49,105,197,162,49,33,1560803748.313585
111,38,52,98,192,163,47,34,1560803748.335988
117,38,52,119,215,118,43,34,1560803748.351447
104,33,47,120,216,110,42,26,1560803748.381116
103,32,51,113,217,113,53,29,1560803748.396044
102,29,58,122,222,149,63,29,1560803748.41099
125,26,64,129,224,151,67,36,1560803748.433557
123,25,62,111,182,155,65,36,1560803748.456054
131,27,62,117,226,178,69,41,1560803748.4703481
145,29,63,128,224,179,63,40,1560803748.493424
139,30,58,117,254,159,54,39,1560803748.516044
120,30,52,114,255,169,58,33,1560803748.530341
132,32,56,115,259,174,66,41,1560803748.553805
117,33,54,124,268,177,63,38,1560803748.575997
112,33,54,121,261,184,68,37,1560803748.598424
131,30,52,106,224,173,73,39,1560803748.614603
127,29,54,109,240,161,75,39,1560803748.6360302
121,28,50,112,247,142,68,32,1560803748.6503289
140,31,60,114,247,120,69,36,1560803748.673403
135,34,60,116,262,101,61,38,1560803748.695955
127,38,60,116,239,125,55,38,1560803748.710323
143,39,56,108,219,139,44,41,1560803748.7345269
146,39,60,102,231,139,43,40,1560803748.7552788
132,34,51,84,167,130,43,36,1560803748.7778368
130,41,60,72,168,159,58,37,1560803748.794586
130,42,62,78,188,147,80,37,1560803748.8154972
120,41,61,77,194,135,86,32,1560803748.8396618
112,41,57,78,159,131,87,31,1560803748.854573
108,41,57,66,180,130,86,31,1560803748.87552
109,33,47,67,166,93,83,30,1560803748.897825
94,28,46,62,163,85,73,30,1560803748.9144971
95,30,47,63,154,77,65,31,1560803748.9429061
88,31,49,63,156,77,63,31,1560803748.959565
87,32,50,79,172,90,62,30,1560803748.974453
80,28,46,74,159,81,53,27,1560803748.99614
80,27,40,73,133,66,33,25,1560803749.017968
67,25,43,71,137,65,32,24,1560803749.034501
55,25,42,79,135,64,29,24,1560803749.062818
57,25,41,68,85,39,27,25,1560803749.077101
56,27,43,75,88,39,25,25,1560803749.0938199
54,29,44,77,131,46,27,23,1560803749.114919
44,28,42,89,141,47,27,23,1560803749.137869
44,27,41,89,149,50,28,24,1560803749.154643
49,30,40,88,157,55,29,24,1560803749.177073
43,29,34,82,159,51,31,22,1560803749.197798
45,26,39,82,152,47,30,22,1560803749.222084
47,27,37,70,140,49,31,23,1560803749.235232
57,28,36,63,145,48,32,22,1560803749.257853
45,24,35,61,150,47,30,23,1560803749.274339
44,24,41,57,155,47,30,24,1560803749.3030028
43,25,38,52,131,46,30,25,1560803749.317925
40,23,42,53,148,42,27,24,1560803749.334458
38,23,46,66,172,47,31,27,1560803749.355489
49,37,45,76,181,42,29,29,1560803749.3777769
50,39,44,79,214,47,30,29,1560803749.394435
49,39,44,84,235,51,29,29,1560803749.4245589
49,39,40,82,240,50,28,30,1560803749.437623
41,39,40,79,284,53,25,27,1560803749.454758
24,30,40,69,291,74,30,23,1560803749.477058
26,28,39,75,275,88,30,23,1560803749.4994788
25,28,39,85,311,95,32,24,1560803749.5128849
27,30,41,92,308,100,36,22,1560803749.542897
25,30,40,87,279,100,35,22,1560803749.5578089
26,29,40,88,265,87,33,24,1560803749.572884
24,33,45,88,292,91,33,23,1560803749.595506
26,34,44,74,253,88,31,22,1560803749.617938
24,31,43,70,252,84,29,22,1560803749.640315
28,34,49,76,237,80,31,24,1560803749.655388
28,34,46,92,272,89,32,24,1560803749.677849
31,29,38,87,259,67,28,27,1560803749.692749
31,26,38,91,251,62,29,26,1560803749.715522
31,29,37,91,253,62,28,28,1560803749.737828
30,28,28,98,277,64,26,28,1560803749.760314
29,27,31,95,287,53,25,28,1560803749.775499
30,29,37,100,268,54,26,28,1560803749.797586
31,34,42,95,273,52,26,29,1560803749.812763
36,34,44,101,310,48,28,29,1560803749.835474
35,34,51,109,341,64,34,30,1560803749.857871
35,35,51,108,343,74,33,30,1560803749.88035
32,33,49,106,355,76,34,29,1560803749.895358
29,32,46,105,347,77,35,28,1560803749.917929
23,34,53,99,308,78,31,26,1560803749.9403698
27,36,49,83,247,78,30,28,1560803749.95545
29,36,50,75,194,68,32,29,1560803749.986469
29,35,48,75,212,68,32,28,1560803750.000278
31,36,51,85,228,68,31,29,1560803750.0154982
32,32,46,87,229,68,33,28,1560803750.053646
29,28,50,84,247,55,29,24,1560803750.060328
27,27,51,83,254,57,27,23,1560803750.075495
28,28,50,82,219,52,28,24,1560803750.106541
28,24,47,78,249,51,26,24,1560803750.1202471
29,29,57,87,266,54,27,25,1560803750.1353471
29,31,58,89,277,53,26,26,1560803750.157818
30,31,57,93,298,58,28,26,1560803750.180192
28,30,60,101,317,66,29,25,1560803750.195232
27,32,58,107,305,68,31,24,1560803750.225983
24,28,50,104,299,64,31,24,1560803750.2403212
25,29,43,103,329,67,32,22,1560803750.257005
28,32,44,96,298,58,31,23,1560803750.277744
28,32,45,87,281,51,28,22,1560803750.300318
28,32,46,83,282,54,27,24,1560803750.31544
29,31,46,78,277,55,25,25,1560803750.346034
30,31,53,125,245,64,30,28,1560803750.360203
31,31,50,132,252,66,31,28,1560803750.377047
31,29,51,134,258,64,31,30,1560803750.399281
34,29,51,139,305,65,32,27,1560803750.420217
34,32,56,139,303,64,32,27,1560803750.435417
31,29,52,114,290,59,31,26,1560803750.45782
27,28,55,113,301,60,32,26,1560803750.480299
29,29,50,110,295,66,32,26,1560803750.495168
26,29,51,99,238,63,33,26,1560803750.5178869
26,28,47,98,242,63,34,27,1560803750.540324
26,28,46,93,245,58,31,25,1560803750.562835
25,32,52,91,242,55,28,24,1560803750.5778131
22,34,58,91,239,44,28,23,1560803750.608499
25,35,55,90,252,39,25,24,1560803750.615294
24,33,51,98,266,48,25,24,1560803750.637906
25,34,50,90,234,46,25,24,1560803750.660139
30,32,45,92,242,46,25,25,1560803750.690979
30,31,39,94,240,50,27,26,1560803750.697822
29,29,42,98,215,50,28,24,1560803750.720308
31,29,43,92,207,45,25,26,1560803750.7369711
32,28,42,83,210,48,24,25,1560803750.7577848
30,25,43,74,193,54,27,25,1560803750.796526
30,24,41,70,192,54,26,24,1560803750.798257
28,25,40,77,180,55,25,25,1560803750.8258789
26,25,41,76,169,52,26,22,1560803750.840198
24,24,38,75,183,51,26,25,1560803750.862794
22,24,35,71,168,43,25,26,1560803750.877914
23,24,36,74,181,40,25,26,1560803750.900203
24,26,38,75,218,42,25,26,1560803750.9397
28,28,46,87,227,50,25,27,1560803750.953594
27,29,49,90,215,47,25,24,1560803750.9601061
28,30,48,93,214,46,24,22,1560803750.982749
27,30,50,95,228,47,25,23,1560803750.999417
27,28,46,84,195,48,24,23,1560803751.0280962
23,26,38,69,196,50,24,21,1560803751.042875
28,26,36,64,194,52,25,23,1560803751.057704
27,24,37,70,239,57,25,23,1560803751.080245
29,24,35,69,221,60,25,25,1560803751.10278
27,26,35,84,222,58,26,25,1560803751.117859
27,28,41,94,227,55,24,25,1560803751.140377
26,29,50,101,221,53,23,27,1560803751.162868
26,30,55,102,178,48,23,25,1560803751.177923
24,31,56,105,215,50,21,24,1560803751.200301
26,30,55,95,224,54,24,26,1560803751.222776
27,27,52,113,249,64,27,26,1560803751.237901
25,29,58,111,268,70,27,25,1560803751.260444
24,32,56,113,292,69,27,27,1560803751.282925
26,31,53,109,271,65,27,27,1560803751.2978811
24,32,55,109,257,62,26,25,1560803751.320305
23,34,56,81,213,50,24,24,1560803751.342717
22,30,45,88,215,44,23,23,1560803751.357661
25,28,41,78,169,45,26,23,1560803751.380318
25,31,47,81,200,48,26,23,1560803751.4029381
27,30,43,77,244,51,25,22,1560803751.417851
27,30,39,73,245,47,24,23,1560803751.440244
27,29,35,62,228,50,25,23,1560803751.4635391
26,32,42,84,260,58,26,23,1560803751.477999
24,30,39,92,244,58,27,24,1560803751.510233
24,29,39,91,204,59,27,23,1560803751.523493
25,30,40,93,213,59,30,24,1560803751.537796
25,30,40,98,213,60,31,23,1560803751.560156
26,30,42,95,224,59,33,26,1560803751.583523
29,30,39,93,207,62,34,27,1560803751.606068
28,30,40,99,222,60,34,27,1560803751.620723
29,33,41,99,227,61,34,27,1560803751.643582
30,34,41,101,256,58,34,29,1560803751.6578221
29,33,41,90,242,59,29,25,1560803751.680192
29,32,42,83,260,62,28,25,1560803751.7035859
31,33,46,87,302,65,33,25,1560803751.726589
30,28,50,89,320,66,31,25,1560803751.748573
30,31,52,86,304,65,31,26,1560803751.7636712
31,29,47,88,311,61,31,28,1560803751.777905
28,31,48,88,299,54,29,25,1560803751.8003552
26,29,46,76,242,50,24,26,1560803751.838392
27,31,45,80,224,56,24,26,1560803751.847754
26,30,44,87,240,62,28,25,1560803751.860337
26,31,43,84,206,62,28,26,1560803751.883717
30,29,42,87,254,67,28,27,1560803751.906558
32,30,42,86,259,66,33,28,1560803751.920172
29,29,39,86,248,59,32,27,1560803751.943619
30,29,42,80,223,52,29,26,1560803751.966119
29,26,39,79,222,55,29,23,1560803751.9803019
25,26,40,73,162,49,30,24,1560803752.0036
25,27,39,75,157,50,25,23,1560803752.0261722
25,29,42,71,144,52,25,25,1560803752.040334
23,25,37,61,141,56,25,24,1560803752.064251
26,26,39,58,136,45,26,23,1560803752.085971
28,28,38,55,128,43,27,21,1560803752.100334
30,27,36,54,145,41,25,22,1560803752.123627
30,25,32,47,161,41,26,19,1560803752.146084
29,27,36,73,173,40,26,19,1560803752.160238
28,25,36,80,176,44,27,21,1560803752.191516
25,24,36,81,173,48,25,25,1560803752.206043
21,24,42,90,160,50,26,23,1560803752.2202132
21,24,42,96,141,52,25,26,1560803752.243632
23,24,45,98,157,61,31,27,1560803752.266091
22,25,43,97,149,61,31,28,1560803752.2802892
25,23,43,103,225,64,31,26,1560803752.303902
28,25,44,100,258,65,33,28,1560803752.325934
29,27,44,101,271,64,34,29,1560803752.340181
27,26,39,80,256,53,31,29,1560803752.371623
29,27,44,77,265,57,30,27,1560803752.385925
29,29,46,73,226,52,33,28,1560803752.416081
29,29,44,68,187,48,32,25,1560803752.4234939
33,30,42,56,182,51,32,23,1560803752.446017
34,30,44,57,219,56,32,22,1560803752.460245
36,31,39,78,242,57,32,26,1560803752.4850788
49,39,43,80,290,66,36,25,1560803752.505748
53,42,46,91,322,77,40,28,1560803752.520125
55,42,48,95,342,80,41,27,1560803752.545183
55,46,50,95,322,76,41,28,1560803752.566214
79,46,50,84,321,75,40,27,1560803752.580277
82,41,48,82,305,69,35,29,1560803752.6034448
84,37,46,74,308,63,33,28,1560803752.625795
83,38,44,80,304,60,33,29,1560803752.648165
85,33,42,92,351,67,34,28,1560803752.663529
119,36,48,107,375,72,39,29,1560803752.686054
128,38,50,108,376,74,40,28,1560803752.70032
136,40,58,118,358,69,38,29,1560803752.725074
137,40,60,120,355,68,38,31,1560803752.753565
136,39,59,113,336,61,38,33,1560803752.7689981
109,36,60,102,323,54,37,34,1560803752.78366
115,37,58,101,311,52,38,33,1560803752.8061259
112,34,50,86,336,54,37,35,1560803752.8285859
119,31,49,78,325,53,37,35,1560803752.8436382
121,35,49,80,309,52,35,35,1560803752.86661
123,37,46,81,295,49,30,35,1560803752.888519
105,32,45,89,276,47,28,35,1560803752.903617
103,34,50,86,274,48,26,33,1560803752.926047
120,36,52,92,271,46,25,35,1560803752.948457
130,40,51,93,271,50,26,37,1560803752.963638
127,39,51,91,265,49,27,37,1560803752.9936259
140,41,54,105,319,50,28,38,1560803753.008566
140,41,50,113,295,50,30,37,1560803753.038517
121,40,46,112,304,53,32,35,1560803753.046248
127,32,48,113,323,56,31,33,1560803753.068563
130,39,54,116,352,60,34,31,1560803753.0833108
112,41,50,112,326,66,39,34,1560803753.106648
109,49,53,117,366,73,46,36,1560803753.12856
145,51,56,119,371,77,49,40,1560803753.142932
134,54,54,128,376,79,50,39,1560803753.166075
124,49,48,128,348,93,53,39,1560803753.188518
129,48,54,120,345,93,49,35,1560803753.211103
141,41,55,120,306,88,45,34,1560803753.233568
121,43,50,113,322,91,45,35,1560803753.2485301
127,52,56,126,377,106,49,36,1560803753.271147
127,56,58,136,477,102,48,38,1560803753.286166
128,66,60,169,506,115,64,49,1560803753.308438
134,68,56,163,514,118,65,52,1560803753.322754
116,77,69,161,512,114,65,53,1560803753.34652
112,70,64,145,478,103,65,55,1560803753.384226
113,75,74,137,390,95,66,55,1560803753.386019
117,73,74,95,365,83,57,49,1560803753.406026
103,71,77,102,392,84,57,48,1560803753.428609
110,66,67,104,373,84,57,45,1560803753.44293
115,66,68,114,399,83,56,43,1560803753.46587
122,60,62,113,465,98,57,46,1560803753.488491
131,55,61,122,472,94,49,44,1560803753.511084
143,57,61,116,446,92,48,45,1560803753.525893
154,52,61,131,466,105,50,44,1560803753.5485551
144,52,64,150,466,112,52,45,1560803753.562819
140,50,54,147,400,100,48,43,1560803753.593581
138,50,54,139,368,97,50,43,1560803753.609005
144,55,58,146,422,111,57,46,1560803753.622803
134,55,58,142,434,100,53,43,1560803753.6461198
138,54,54,116,403,91,51,43,1560803753.6685321
146,54,57,113,404,87,52,40,1560803753.690882
142,54,57,117,418,88,50,41,1560803753.705899
118,46,54,115,384,77,43,33,1560803753.728581
109,43,59,106,340,71,38,33,1560803753.751153
112,43,59,101,308,66,36,31,1560803753.766008
113,44,58,108,285,70,34,31,1560803753.788613
105,38,50,102,273,64,32,26,1560803753.81949
101,34,44,96,237,54,29,25,1560803753.827136
106,34,36,94,261,54,34,26,1560803753.8482552
107,34,36,90,266,58,35,27,1560803753.8703609
90,29,38,83,282,56,37,26,1560803753.8867948
93,30,39,84,274,57,38,29,1560803753.907917
104,34,42,88,287,59,38,31,1560803753.937865
109,36,43,89,260,62,38,33,1560803753.947676
115,38,43,90,256,57,36,31,1560803753.9679608
137,39,46,90,250,55,39,33,1560803753.99043
148,40,45,82,236,55,40,35,1560803754.007172
142,39,53,110,260,63,42,34,1560803754.0353491
150,35,59,107,254,58,40,36,1560803754.050235
141,31,59,106,257,57,39,37,1560803754.067004
120,30,55,123,296,66,38,37,1560803754.087966
100,29,58,126,304,65,40,39,1560803754.112091
103,30,51,116,367,59,36,39,1560803754.127092
86,33,45,123,371,62,40,35,1560803754.155293
89,37,44,124,365,63,42,36,1560803754.1721551
86,41,44,102,328,56,40,34,1560803754.187143
91,41,39,101,318,56,36,29,1560803754.215394
98,38,39,83,279,48,36,29,1560803754.230387
99,36,37,77,281,45,30,27,1560803754.252938
100,36,37,85,306,48,30,26,1560803754.275483
112,36,40,84,300,44,30,27,1560803754.290415
109,36,42,84,301,47,30,27,1560803754.306959
102,36,39,76,256,54,33,26,1560803754.3280199
126,36,38,80,273,55,31,31,1560803754.350366
126,38,49,87,313,57,31,32,1560803754.3671188
124,33,46,89,313,58,31,31,1560803754.387951
127,32,47,92,344,62,34,33,1560803754.410277
141,33,49,92,320,56,29,33,1560803754.432859
116,31,50,88,312,58,29,28,1560803754.447757
115,26,40,74,272,52,29,28,1560803754.470412
106,29,41,76,272,55,28,30,1560803754.495327
97,30,39,67,226,48,24,27,1560803754.507937
88,32,37,65,204,47,26,30,1560803754.530302
86,33,38,63,195,41,25,31,1560803754.546908
76,32,36,56,159,41,23,28,1560803754.567852
73,32,37,54,138,38,22,25,1560803754.590329
73,32,41,54,132,36,22,27,1560803754.614373
63,31,43,63,138,42,22,25,1560803754.627772
73,35,47,60,123,45,23,26,1560803754.65008
74,34,49,60,123,46,25,27,1560803754.6727722
80,32,50,59,128,46,26,29,1560803754.695421
85,33,51,65,175,49,28,32,1560803754.710405
79,30,51,59,183,48,29,29,1560803754.732854
65,25,47,60,192,48,28,26,1560803754.747809
76,29,46,64,192,46,27,28,1560803754.7702188
96,30,43,64,189,43,26,27,1560803754.7929401
90,27,37,67,244,45,27,21,1560803754.807948
86,27,40,81,280,46,25,22,1560803754.8460212
85,28,42,83,273,44,25,23,1560803754.852845
78,30,40,82,269,45,25,24,1560803754.867869
88,29,45,81,279,46,28,26,1560803754.890301
108,33,49,78,207,44,27,36,1560803754.912882
110,35,46,69,141,38,27,39,1560803754.927865
112,36,43,68,152,44,28,41,1560803754.950289
111,32,46,65,167,46,27,41,1560803754.972885
88,31,42,68,172,52,24,40,1560803754.987946
71,30,35,67,175,54,24,35,1560803755.010484
68,31,35,64,177,54,24,31,1560803755.040815
65,29,36,74,258,57,24,29,1560803755.0494132
66,31,32,75,256,58,26,28,1560803755.077602
102,35,45,76,251,52,32,67,1560803755.0924401
107,37,56,78,266,56,37,70,1560803755.107215
124,35,60,74,280,55,38,72,1560803755.129608
127,36,61,72,201,49,39,78,1560803755.15209
130,34,63,70,197,48,43,79,1560803755.167069
122,32,61,68,200,50,40,62,1560803755.189642
127,28,56,77,224,46,37,62,1560803755.212346
145,32,56,95,223,47,48,121,1560803755.227749
156,32,58,95,227,48,51,137,1560803755.2503211
193,35,63,103,254,46,50,142,1560803755.272659
199,37,62,110,248,43,52,151,1560803755.287996
195,37,72,105,225,43,50,150,1560803755.319542
200,35,74,93,215,42,41,119,1560803755.332758
228,34,77,95,216,39,40,116,1560803755.3478801
241,34,78,88,205,52,47,129,1560803755.370325
238,36,87,91,219,55,46,133,1560803755.392854
312,41,85,96,195,52,48,141,1560803755.407789
324,40,83,98,191,52,47,146,1560803755.438246
319,45,102,158,196,54,45,143,1560803755.452716
360,44,105,166,180,49,38,201,1560803755.4678562
423,48,99,168,193,55,45,214,1560803755.4903462
395,44,92,164,212,55,44,211,1560803755.512784
408,50,102,175,214,60,50,227,1560803755.527868
419,47,81,149,205,65,57,287,1560803755.550318
386,48,73,152,196,61,55,252,1560803755.5728061
350,42,79,144,218,55,50,235,1560803755.5953689
363,43,80,148,216,55,51,237,1560803755.6102948
335,36,68,137,214,51,46,215,1560803755.6327062
338,37,73,124,216,44,41,165,1560803755.663618
346,38,77,130,224,43,42,180,1560803755.669679
336,36,69,130,219,41,43,182,1560803755.692137
314,38,68,123,223,40,41,194,1560803755.715226
341,41,65,123,218,39,42,200,1560803755.7295132
331,43,64,116,218,43,40,166,1560803755.752158
303,41,60,105,255,52,42,178,1560803755.774615
271,40,66,104,216,49,39,183,1560803755.7895381
273,37,65,114,222,49,40,174,1560803755.820383
233,37,71,119,225,50,39,173,1560803755.842903
241,34,69,112,222,44,38,185,1560803755.849726
312,36,69,114,223,41,35,161,1560803755.872758
320,36,66,126,274,44,37,185,1560803755.895177
309,34,70,123,297,47,38,193,1560803755.910281
314,31,64,120,297,48,36,187,1560803755.9327722
305,33,68,115,314,47,33,172,1560803755.955398
271,29,72,111,297,41,35,209,1560803755.970439
276,30,71,108,256,39,33,193,1560803755.992811
264,31,68,110,208,33,32,182,1560803756.015293
310,29,69,110,224,35,35,195,1560803756.030326
317,30,63,123,216,37,39,202,1560803756.054445
287,33,68,132,233,41,36,178,1560803756.083632
317,34,70,147,228,44,38,257,1560803756.0904279
365,38,68,149,235,45,38,271,1560803756.120862
336,39,70,167,237,47,39,292,1560803756.135475
320,39,75,165,238,48,35,300,1560803756.1504369
333,41,74,161,214,48,38,288,1560803756.172866
311,46,73,148,211,49,35,241,1560803756.195313
281,49,75,145,202,50,35,267,1560803756.210394
266,49,73,120,216,48,33,266,1560803756.241501
263,49,71,130,265,51,35,257,1560803756.255465
235,53,97,168,282,51,36,263,1560803756.2703311
241,53,109,163,280,51,46,272,1560803756.2929869
233,52,112,161,294,49,45,236,1560803756.31551
224,51,115,166,285,46,44,207,1560803756.330224
214,54,116,157,224,43,45,206,1560803756.3529608
218,48,94,105,185,41,45,189,1560803756.3753982
197,43,77,111,189,41,45,140,1560803756.390401
201,42,75,110,175,46,45,162,1560803756.412835
197,45,74,106,199,51,46,153,1560803756.435306
206,44,80,115,206,53,48,147,1560803756.450384
193,42,77,125,262,60,49,165,1560803756.4727669
190,42,77,120,259,59,42,161,1560803756.4954028
182,41,85,125,291,64,41,133,1560803756.510451
194,42,84,126,269,60,41,146,1560803756.548543
204,40,76,125,274,59,39,161,1560803756.5553858
201,40,76,125,224,53,39,157,1560803756.5785608
225,42,81,126,224,54,40,180,1560803756.592725
229,43,74,121,215,45,41,200,1560803756.615476
231,46,74,116,211,47,41,196,1560803756.6384661
225,45,68,105,204,44,40,195,1560803756.652793
263,47,77,114,209,39,37,198,1560803756.67544
241,47,81,118,249,45,35,178,1560803756.706231
214,42,81,123,252,43,33,158,1560803756.714549
219,37,83,125,262,41,34,173,1560803756.743532
238,37,84,132,272,51,34,171,1560803756.758493
232,39,75,120,266,50,30,151,1560803756.773322
225,37,69,119,248,44,30,139,1560803756.795288
227,38,62,116,205,45,34,141,1560803756.818884
217,36,54,122,189,45,33,112,1560803756.832845
199,41,53,124,175,37,32,93,1560803756.855401
182,38,56,130,176,41,33,100,1560803756.878568
213,37,51,127,146,43,33,99,1560803756.892715
213,38,54,130,179,43,31,100,1560803756.915368
205,38,61,133,192,42,30,106,1560803756.9384902
190,42,68,125,178,40,34,120,1560803756.961101
167,40,64,108,186,36,34,122,1560803756.975323
122,38,67,120,211,36,36,125,1560803756.998506
143,43,65,118,206,33,35,110,1560803757.012753
153,44,59,108,184,33,34,109,1560803757.0436368
149,36,49,103,227,36,30,86,1560803757.058464
151,34,55,104,223,37,31,74,1560803757.072718
156,36,51,88,199,34,28,72,1560803757.095405
138,29,55,81,172,35,25,64,1560803757.118569
133,30,56,74,200,37,24,45,1560803757.1334732
130,29,54,69,250,43,24,43,1560803757.16394
122,31,44,69,297,47,24,40,1560803757.178605
109,30,41,60,302,47,22,31,1560803757.192695
119,39,36,55,303,47,23,28,1560803757.2154038
117,36,34,55,294,45,24,29,1560803757.238617
126,41,40,56,225,43,25,31,1560803757.2529
139,43,47,60,185,42,28,37,1560803757.277105
135,42,48,60,182,48,33,37,1560803757.2985961
119,35,48,62,207,52,35,36,1560803757.321099
123,38,50,64,204,53,36,38,1560803757.3365018
129,35,46,64,197,59,37,38,1560803757.357976
108,36,42,73,209,71,42,34,1560803757.372735
106,37,42,83,242,77,41,36,1560803757.403599
121,46,42,86,249,79,40,39,1560803757.418641
124,44,43,100,259,132,56,35,1560803757.432844
105,43,43,102,267,142,59,33,1560803757.456415
109,39,43,99,243,154,57,33,1560803757.478609
131,38,42,95,213,184,60,34,1560803757.5017529
139,28,41,94,191,189,61,34,1560803757.5161119
133,31,35,78,173,166,56,39,1560803757.538321
145,32,33,76,166,157,57,40,1560803757.561092
144,44,31,85,202,170,92,45,1560803757.5762448
144,46,37,84,198,156,92,47,1560803757.598554
170,51,38,82,191,159,97,53,1560803757.621434
164,52,43,97,230,159,97,54,1560803757.64357
163,54,48,113,239,195,114,60,1560803757.658572
169,47,51,104,223,217,94,59,1560803757.6810641
182,48,54,102,224,214,98,58,1560803757.696125
152,52,58,106,252,230,101,52,1560803757.718974
171,51,58,93,233,231,99,49,1560803757.748595
179,52,61,89,251,228,80,44,1560803757.75616
193,51,61,93,244,225,94,45,1560803757.78614
251,56,57,124,296,231,112,56,1560803757.8010519
256,53,55,129,330,249,119,60,1560803757.8235939
286,59,73,138,327,302,146,74,1560803757.8384962
292,61,77,135,316,311,145,72,1560803757.860915
291,62,79,145,339,296,138,70,1560803757.8760269
247,57,81,128,306,295,128,61,1560803757.898673
306,58,81,126,267,295,127,66,1560803757.928618
294,69,67,115,257,246,102,52,1560803757.9354382
294,69,62,124,247,258,114,59,1560803757.95851
288,75,60,109,212,292,119,67,1560803757.981074
291,77,65,105,198,355,118,70,1560803757.9953618
292,81,70,107,182,364,127,84,1560803758.026072
286,67,75,125,201,399,132,85,1560803758.041045
282,68,72,117,205,391,129,82,1560803758.05582
329,66,74,124,202,361,125,86,1560803758.103146
316,69,71,128,241,324,135,88,1560803758.105028
271,63,73,123,227,323,122,71,1560803758.115438
260,63,72,113,221,285,119,69,1560803758.138728
292,61,80,137,242,291,115,72,1560803758.161058
327,63,80,131,244,320,109,71,1560803758.175433
335,60,83,141,215,317,101,69,1560803758.199336
332,63,78,152,249,331,112,69,1560803758.221059
371,76,118,177,250,348,113,86,1560803758.2353961
357,74,119,156,225,333,151,81,1560803758.258549
297,70,119,156,236,332,164,71,1560803758.280933
306,68,122,168,330,304,156,72,1560803758.303628
300,70,136,189,347,250,149,71,1560803758.319701
301,70,105,164,342,237,157,69,1560803758.341068
306,80,103,187,368,327,170,75,1560803758.355378
348,85,101,193,364,301,158,87,1560803758.379319
337,84,101,205,269,332,175,86,1560803758.401118
340,85,84,184,224,338,177,85,1560803758.423531
312,78,78,189,276,343,177,71,1560803758.438936
395,76,105,205,261,248,141,78,1560803758.4609609
340,72,117,238,288,346,179,66,1560803758.4836712
363,74,118,228,308,319,170,73,1560803758.498636
469,78,121,246,307,346,169,88,1560803758.521107
485,82,126,246,272,374,160,92,1560803758.5443869
427,76,115,219,270,391,160,85,1560803758.558589
433,74,109,191,268,311,120,84,1560803758.581094
456,76,102,182,253,353,131,86,1560803758.603685
377,69,99,155,246,340,173,79,1560803758.618515
356,59,91,164,265,290,173,76,1560803758.64111
347,55,74,170,282,277,206,76,1560803758.671074
360,54,71,154,247,302,219,77,1560803758.6786141
308,48,68,142,260,254,211,65,1560803758.701647
261,40,66,145,302,235,189,57,1560803758.723579
246,46,70,130,276,258,184,56,1560803758.7386642
262,61,72,142,289,315,155,57,1560803758.7611089
267,68,82,171,299,365,196,75,1560803758.783975
263,68,85,180,288,418,205,82,1560803758.79861
276,71,97,187,280,421,194,88,1560803758.8210778
331,66,97,192,276,426,201,89,1560803758.843673
322,72,92,179,268,409,187,89,1560803758.858343
316,66,84,166,264,370,131,74,1560803758.880983
324,79,96,168,265,339,122,72,1560803758.9036882
332,80,85,174,256,354,120,65,1560803758.919632
284,85,92,186,359,417,140,71,1560803758.942058
268,79,104,181,328,440,148,72,1560803758.962894
251,81,99,175,321,441,139,72,1560803758.9796062
354,72,100,181,376,455,141,77,1560803759.010258
350,69,109,185,371,505,197,80,1560803759.0228698
339,65,108,177,286,528,215,74,1560803759.039571
352,63,97,173,281,579,233,73,1560803759.061958
349,57,98,166,283,591,239,71,1560803759.0828679
252,71,99,158,218,625,250,76,1560803759.0994391
303,78,98,138,206,586,216,90,1560803759.122495
310,77,98,124,180,536,192,88,1560803759.142853
304,77,97,132,213,517,176,86,1560803759.159241
300,76,100,139,241,496,214,92,1560803759.1818259
317,71,110,141,263,471,196,85,1560803759.202812
252,64,102,134,255,465,190,64,1560803759.219588
298,71,109,143,271,556,207,67,1560803759.241915
284,72,112,147,254,519,195,64,1560803759.262876
293,74,114,148,253,526,149,55,1560803759.279575
275,66,91,136,205,532,142,53,1560803759.307949
296,74,89,139,240,637,200,63,1560803759.32283
263,75,92,153,227,555,201,64,1560803759.3395698
283,71,91,150,238,523,203,69,1560803759.367793
282,69,87,158,243,555,266,81,1560803759.382947
291,77,92,161,252,534,278,83,1560803759.407157
278,72,99,178,226,412,239,76,1560803759.4201949
261,65,82,157,235,396,220,73,1560803759.442743
254,64,94,157,245,421,219,67,1560803759.473866
264,76,107,145,223,365,168,65,1560803759.480406
222,71,104,134,230,394,167,59,1560803759.502925
219,67,100,109,242,377,171,62,1560803759.525435
213,79,106,114,238,381,167,65,1560803759.540363
181,81,96,116,249,352,167,66,1560803759.562923
190,69,80,124,257,374,150,58,1560803759.6015608
197,64,79,146,252,302,132,58,1560803759.607965
266,67,74,154,242,323,123,59,1560803759.622827
290,62,67,156,253,325,142,61,1560803759.645423
301,58,71,154,235,354,140,59,1560803759.660209
283,59,75,176,220,314,123,54,1560803759.682945
329,64,77,162,231,334,130,56,1560803759.7072392
288,65,85,169,302,344,139,58,1560803759.7203221
264,60,85,179,297,319,114,53,1560803759.742853
268,60,79,180,313,291,123,59,1560803759.7670002
267,64,80,150,319,310,129,62,1560803759.780383
226,60,83,167,347,284,141,57,1560803759.802884
213,55,81,149,284,231,141,51,1560803759.833536
224,49,80,140,270,227,141,52,1560803759.840218
230,49,78,142,241,195,128,50,1560803759.871931
254,55,70,149,260,150,115,49,1560803759.893591
229,54,63,124,213,131,81,48,1560803759.900102
208,54,51,121,236,114,60,44,1560803759.922848
188,59,43,108,253,86,45,42,1560803759.946975
162,61,44,93,253,84,39,33,1560803759.9601882
103,48,47,78,251,77,37,27,1560803759.98276
86,45,63,102,264,84,34,25,1560803760.005476
86,46,65,106,300,91,34,27,1560803760.020333
99,45,64,104,303,91,30,26,1560803760.042976
74,39,72,151,350,89,31,27,1560803760.0653858
72,39,72,177,439,96,32,27,1560803760.080399
73,40,59,172,451,96,33,27,1560803760.102973
73,39,62,170,418,90,31,26,1560803760.125409
50,28,63,172,406,90,33,22,1560803760.147987
55,27,56,137,404,93,33,28,1560803760.170432
55,26,52,98,280,79,28,28,1560803760.185304
55,32,57,88,265,74,30,31,1560803760.200369
55,32,50,85,283,75,30,30,1560803760.224463
47,33,50,92,364,74,29,30,1560803760.245883
41,35,55,115,358,68,33,26,1560803760.260349
49,39,63,142,378,77,36,28,1560803760.290298
50,32,56,140,364,79,33,22,1560803760.313469
51,32,61,148,404,79,33,24,1560803760.3279269
52,32,61,144,338,77,34,26,1560803760.3428462
49,30,53,122,317,76,30,24,1560803760.365381
55,30,54,92,308,68,28,25,1560803760.387875
56,30,53,91,318,55,27,28,1560803760.410371
54,28,51,75,255,51,26,26,1560803760.4254029
62,27,48,72,266,57,26,25,1560803760.447992
62,29,50,80,270,56,26,29,1560803760.462835
49,29,50,86,278,56,27,29,1560803760.48527
46,32,53,94,319,54,29,29,1560803760.524241
50,32,52,96,314,55,30,29,1560803760.526161
43,33,55,132,435,66,34,29,1560803760.561112
44,37,68,131,431,72,36,30,1560803760.567866
44,35,67,143,449,77,39,28,1560803760.582862
42,33,69,149,432,77,38,28,1560803760.6053689
42,33,69,164,431,78,38,29,1560803760.627667
46,33,70,139,299,78,38,31,1560803760.642883
47,28,59,138,285,71,35,28,1560803760.6655278
48,31,57,121,264,71,33,29,1560803760.687974
47,30,53,111,237,80,33,27,1560803760.70279
53,32,58,90,242,80,35,27,1560803760.727117
55,33,55,91,267,69,32,24,1560803760.756037
54,34,50,91,275,68,32,25,1560803760.76286
56,33,59,109,290,74,32,25,1560803760.785406
56,33,71,115,298,64,30,25,1560803760.807982
46,30,65,110,294,61,28,23,1560803760.822804
47,34,65,110,275,60,28,23,1560803760.8455179
49,34,68,115,306,67,28,23,1560803760.867881
46,35,67,110,296,57,26,25,1560803760.88295
47,36,54,101,291,66,30,26,1560803760.905387
47,37,57,102,292,63,29,28,1560803760.92786
39,32,56,103,315,66,28,29,1560803760.943003
37,34,51,95,308,64,30,28,1560803760.965374
38,33,44,91,316,70,31,30,1560803760.987925
38,34,48,99,347,72,32,30,1560803761.0045369
42,32,45,101,337,74,33,28,1560803761.025239
51,34,49,106,334,72,34,31,1560803761.047649
56,34,49,105,309,69,33,34,1560803761.062232
57,33,47,99,316,68,32,31,1560803761.0928051
56,33,59,109,287,59,27,32,1560803761.107108
56,34,61,107,295,58,28,31,1560803761.122058
48,35,61,104,290,56,26,28,1560803761.144551
54,35,67,107,297,59,25,29,1560803761.167071
54,34,66,103,262,53,28,29,1560803761.182055
54,33,54,96,254,52,27,25,1560803761.213246
55,33,53,99,259,58,26,28,1560803761.2270892
51,30,54,93,231,57,26,27,1560803761.2509038
39,27,55,117,268,63,27,23,1560803761.264567
38,29,58,119,247,76,26,26,1560803761.287087
38,30,66,118,292,76,29,27,1560803761.310265
34,31,67,114,280,71,29,26,1560803761.332804
43,30,64,114,279,72,29,27,1560803761.355273
52,33,66,92,240,65,28,29,1560803761.370219
53,30,60,87,242,46,27,28,1560803761.384562
51,29,52,73,172,44,24,27,1560803761.4071279
51,30,56,79,181,50,28,31,1560803761.4302142
46,32,56,78,185,48,29,30,1560803761.444574
36,33,54,79,172,43,28,29,1560803761.467076
36,35,56,93,257,66,35,31,1560803761.490334
40,35,54,91,277,73,37,31,1560803761.504601
39,34,58,101,291,71,36,28,1560803761.527066
49,35,64,112,326,74,37,29,1560803761.565876
50,35,61,110,332,76,37,29,1560803761.567522
49,37,61,104,282,60,30,28,1560803761.587135
49,41,63,109,269,56,30,27,1560803761.610241
51,47,72,115,260,56,29,29,1560803761.624578
43,45,68,107,234,55,28,29,1560803761.6471882
42,44,64,98,226,60,28,28,1560803761.670239
40,41,63,104,225,61,27,26,1560803761.692762
39,37,65,102,234,58,26,28,1560803761.707055
36,32,50,87,224,62,26,25,1560803761.730272
40,33,64,100,204,61,26,25,1560803761.744539
45,31,63,120,278,58,28,25,1560803761.767134
50,34,64,114,269,56,31,27,1560803761.7899868
50,34,59,116,262,61,31,27,1560803761.804613
51,32,61,121,265,67,32,28,1560803761.83533
45,31,48,118,309,67,32,29,1560803761.850287
37,31,44,106,232,63,29,28,1560803761.8645618
33,29,51,106,257,74,29,28,1560803761.887083
35,29,55,104,260,68,28,29,1560803761.910284
37,27,53,94,251,60,26,28,1560803761.924555
50,28,52,92,214,59,27,28,1560803761.947145
53,29,61,101,274,66,26,27,1560803761.9713929
54,29,56,100,264,55,25,28,1560803761.984606
50,28,54,106,260,61,25,29,1560803762.007139
51,29,52,105,268,59,25,28,1560803762.03028
42,29,52,101,277,61,27,29,1560803762.044592
39,29,50,92,226,59,29,31,1560803762.075249
36,29,51,98,247,60,30,30,1560803762.090239
36,29,48,91,235,60,29,28,1560803762.1128368
38,30,53,97,224,60,31,32,1560803762.135075
35,36,56,98,207,56,29,30,1560803762.157782
40,36,55,94,212,49,28,32,1560803762.164565
40,38,53,94,183,47,26,32,1560803762.186993
40,38,53,95,185,40,28,32,1560803762.210254
37,40,59,99,211,42,26,28,1560803762.2327769
36,35,58,114,230,47,27,29,1560803762.247189
32,34,54,113,235,57,26,26,1560803762.270743
34,32,54,115,221,58,28,24,1560803762.293031
36,33,63,117,226,60,27,25,1560803762.307231
34,28,56,123,249,58,25,24,1560803762.330725
33,31,58,117,231,67,26,24,1560803762.3533
33,30,60,118,231,65,25,24,1560803762.375915
33,32,60,118,291,71,25,25,1560803762.390866
40,31,56,112,287,69,25,27,1560803762.4134939
45,33,56,110,249,72,27,27,1560803762.4277198
47,32,49,96,249,72,26,26,1560803762.451405
48,32,50,93,248,73,31,26,1560803762.4734368
50,29,51,82,178,67,29,25,1560803762.4878
45,28,48,93,206,67,30,21,1560803762.51078
40,25,48,84,234,69,32,25,1560803762.533329
38,23,50,82,235,62,33,25,1560803762.547878
50,27,49,80,220,59,33,27,1560803762.570916
49,27,51,80,214,59,32,29,1560803762.59416
50,28,49,66,247,60,30,28,1560803762.6077619
53,31,47,61,232,53,28,28,1560803762.6307962
58,33,44,60,225,55,26,27,1560803762.65349
82,58,41,60,227,52,22,27,1560803762.667715
85,60,39,66,241,60,25,27,1560803762.690945
86,61,43,71,282,74,26,29,1560803762.720767
87,61,42,63,281,74,24,27,1560803762.727676
88,62,45,65,293,75,25,27,1560803762.750942
67,47,46,69,291,76,26,24,1560803762.773518
74,47,42,71,309,73,26,24,1560803762.7877
86,46,39,64,222,58,26,21,1560803762.818298
85,45,36,61,203,60,28,19,1560803762.833719
82,49,37,60,187,65,29,19,1560803762.8477669
74,41,37,63,181,67,31,21,1560803762.878584
61,37,39,57,124,63,30,21,1560803762.89348
42,37,38,60,115,66,33,24,1560803762.9235811
46,38,40,65,157,64,32,28,1560803762.930887
70,33,38,75,154,56,29,27,1560803762.953458
75,33,40,71,155,50,27,26,1560803762.967818
76,34,49,74,155,68,27,26,1560803762.990957
76,35,48,79,199,70,23,23,1560803763.0213099
78,37,50,82,170,70,25,20,1560803763.029157
57,32,55,82,186,69,27,21,1560803763.058462
56,37,54,83,201,71,27,22,1560803763.073459
54,36,50,101,267,61,27,22,1560803763.0958722
66,36,55,95,243,61,29,21,1560803763.1107938
62,42,53,99,243,61,27,21,1560803763.133594
64,44,49,106,266,59,31,21,1560803763.156023
59,45,56,132,296,61,32,20,1560803763.1715631
83,45,55,120,272,73,31,23,1560803763.2010212
116,48,51,122,282,74,31,26,1560803763.2160141
157,53,56,132,346,76,37,35,1560803763.230948
159,54,64,133,333,79,34,37,1560803763.260998
160,51,58,141,325,85,38,38,1560803763.275999
164,61,58,147,323,74,38,37,1560803763.290565
164,62,61,156,372,74,38,41,1560803763.313559
133,54,56,156,406,77,37,34,1560803763.3359358
130,56,54,153,449,80,40,36,1560803763.350883
131,60,57,125,439,71,38,37,1560803763.373502
131,58,60,119,435,69,39,39,1560803763.396014
106,55,63,121,406,65,39,33,1560803763.410754
110,56,70,122,390,57,39,34,1560803763.433577
110,57,69,149,362,53,36,29,1560803763.455977
108,56,69,164,376,55,35,30,1560803763.470997
112,66,83,188,432,66,46,37,1560803763.493457
130,69,81,195,488,84,52,42,1560803763.523411
120,69,82,197,437,90,52,43,1560803763.5314288
123,70,85,178,410,88,53,47,1560803763.5534198
130,67,89,166,411,90,52,47,1560803763.576142
133,61,78,144,344,88,48,43,1560803763.590188
118,60,78,122,283,72,40,40,1560803763.613554
124,63,74,106,298,79,40,39,1560803763.643961
126,60,63,129,450,86,40,35,1560803763.651873
127,61,57,124,461,83,39,34,1560803763.673748
104,52,57,150,586,94,40,32,1560803763.695949
101,60,61,149,571,97,42,36,1560803763.710134
110,57,59,150,595,93,42,38,1560803763.734158
108,57,59,125,520,89,42,39,1560803763.756979
102,56,61,142,525,102,45,40,1560803763.770431
114,73,58,111,405,93,41,40,1560803763.793578
109,65,51,129,459,95,45,37,1560803763.823494
113,74,49,130,442,95,51,37,1560803763.83032
111,73,50,135,410,98,53,36,1560803763.853889
115,74,51,138,410,91,56,37,1560803763.8763962
127,67,44,141,402,98,65,40,1560803763.890215
130,74,51,139,342,105,66,39,1560803763.913504
123,69,61,143,377,104,64,39,1560803763.93604
121,68,59,148,481,105,60,38,1560803763.950734
118,68,55,133,453,101,55,36,1560803763.973443
93,62,56,144,552,94,45,31,1560803763.996103
119,52,52,128,543,83,41,31,1560803764.034009
118,48,58,145,554,93,41,34,1560803764.0357141
125,46,59,136,472,89,44,36,1560803764.0551891
121,46,66,140,482,88,43,33,1560803764.077846
151,40,70,125,345,80,41,35,1560803764.0942562
130,47,67,132,348,81,38,33,1560803764.115428
126,52,78,136,261,75,38,33,1560803764.139359
121,53,82,134,247,74,35,34,1560803764.1544151
122,55,79,128,270,78,39,35,1560803764.175522
115,58,77,125,262,78,41,36,1560803764.197858
134,53,82,124,300,80,40,40,1560803764.215242
147,52,68,90,337,74,39,37,1560803764.235455
149,51,67,94,397,76,41,37,1560803764.257821
153,53,67,101,435,80,39,38,1560803764.274449
146,56,66,101,485,90,42,40,1560803764.2953131
136,57,62,96,466,89,41,35,1560803764.317742
120,53,52,91,433,83,38,34,1560803764.341837
116,52,51,93,406,89,39,36,1560803764.355173
112,54,51,89,361,82,40,37,1560803764.377721
102,48,53,79,350,73,35,33,1560803764.394364
105,49,54,78,344,70,34,33,1560803764.415255
108,47,50,85,346,71,35,33,1560803764.437777
112,50,51,77,372,56,30,28,1560803764.460398
110,47,47,70,344,58,26,28,1560803764.475241
123,48,45,69,283,57,25,31,1560803764.497813
123,48,45,72,292,54,25,35,1560803764.514372
130,48,45,64,323,54,23,36,1560803764.535254
142,48,43,62,258,52,23,41,1560803764.565339
142,45,42,70,248,49,24,39,1560803764.5744948
125,41,41,75,294,54,27,38,1560803764.597022
150,40,37,74,284,54,31,43,1560803764.617832
158,52,38,72,249,53,30,43,1560803764.634563
146,49,45,75,279,61,30,38,1560803764.6569278
146,52,51,74,325,61,31,38,1560803764.677792
145,53,50,73,285,56,30,36,1560803764.694217
103,52,52,71,284,53,26,30,1560803764.7153301
79,38,51,77,281,51,26,31,1560803764.737958
74,35,45,90,305,47,27,30,1560803764.754599
73,35,41,91,286,44,28,31,1560803764.7754211
109,39,43,90,293,45,26,33,1560803764.807096
121,49,44,91,291,48,27,27,1560803764.814484
123,53,45,85,284,48,29,26,1560803764.8354712
123,54,44,74,229,57,29,29,1560803764.857891
127,51,46,67,192,60,26,29,1560803764.874395
120,52,47,64,167,58,26,28,1560803764.895408
115,41,46,63,188,57,25,28,1560803764.925381
107,34,47,64,206,58,27,27,1560803764.934334
106,35,46,61,245,59,26,25,1560803764.9552839
103,37,44,76,321,72,31,26,1560803764.977876
79,32,41,79,344,74,35,35,1560803764.994581
111,39,38,96,340,79,39,38,1560803765.015468
134,45,38,100,341,93,40,47,1560803765.037805
135,44,35,110,329,88,40,47,1560803765.0602028
133,42,35,113,254,77,39,48,1560803765.082885
128,50,33,125,249,76,36,41,1560803765.097734
98,45,34,113,266,81,34,50,1560803765.120214
72,40,32,118,257,67,30,43,1560803765.1427839
79,49,33,119,269,83,33,48,1560803765.158036
94,54,28,115,275,90,32,46,1560803765.179583
95,46,28,100,261,90,31,51,1560803765.195251
87,46,28,110,257,83,37,46,1560803765.2170188
87,56,30,135,267,85,57,45,1560803765.248171
99,67,34,135,256,73,96,52,1560803765.2624109
88,65,34,144,264,72,100,53,1560803765.285918
99,69,36,155,291,74,103,48,1560803765.3002849
106,71,35,161,293,80,107,46,1560803765.315336
106,65,34,142,284,75,105,51,1560803765.337733
87,54,29,142,276,74,87,42,1560803765.3606539
86,55,30,142,296,69,87,47,1560803765.376885
68,49,30,156,298,83,83,48,1560803765.397765
58,48,33,153,273,76,77,53,1560803765.4207199
63,52,35,153,299,76,67,47,1560803765.435333
63,45,37,164,352,77,53,49,1560803765.4577641
61,42,39,156,342,84,50,46,1560803765.4803288
94,57,40,139,358,72,81,56,1560803765.495321
96,55,37,136,377,75,94,52,1560803765.517905
89,50,36,132,356,75,96,56,1560803765.5402
90,52,34,124,331,80,92,56,1560803765.5555801
111,58,35,151,357,72,95,62,1560803765.593547
88,47,36,147,338,85,74,56,1560803765.608273
84,46,36,138,327,87,57,58,1560803765.624516
82,47,35,145,330,90,60,55,1560803765.639599
87,50,37,134,282,79,59,52,1560803765.6602962
64,42,34,113,252,82,56,57,1560803765.675363
70,37,32,118,227,62,52,55,1560803765.706377
77,36,32,127,229,66,49,51,1560803765.722111
84,42,35,128,225,79,39,52,1560803765.735504
85,36,35,157,225,91,50,57,1560803765.757812
82,38,34,151,210,90,57,43,1560803765.780351
82,42,35,153,199,95,78,47,1560803765.797036
78,43,36,151,215,99,87,50,1560803765.817776
74,42,34,147,255,104,91,62,1560803765.840156
77,41,29,136,258,96,87,58,1560803765.8555481
80,41,31,151,261,99,81,60,1560803765.877549
73,41,31,147,325,95,66,58,1560803765.899744
71,39,32,144,307,97,52,59,1560803765.916102
72,37,33,141,273,80,49,50,1560803765.937093
61,43,35,123,285,77,46,50,1560803765.959525
66,42,35,107,273,80,48,54,1560803765.982306
65,43,34,102,198,89,55,55,1560803765.997121
63,46,35,120,253,84,66,69,1560803766.020079
65,46,31,129,274,86,65,68,1560803766.042288
72,45,30,128,266,88,65,71,1560803766.057167
79,52,29,125,265,85,63,72,1560803766.0797482
80,50,32,147,289,74,50,70,1560803766.102068
89,49,31,147,234,71,36,59,1560803766.117042
82,47,33,146,220,69,41,59,1560803766.147835
86,55,36,139,221,70,43,58,1560803766.162055
79,49,38,146,227,66,57,62,1560803766.179276
77,46,36,146,232,73,90,59,1560803766.207902
68,46,35,129,236,66,100,53,1560803766.222083
83,52,35,118,229,61,99,56,1560803766.2371461
102,56,32,119,227,65,115,58,1560803766.259774
100,57,34,114,279,63,129,55,1560803766.282086
102,60,35,100,277,73,112,66,1560803766.3056881
101,59,34,103,278,79,106,67,1560803766.3195279
112,57,33,104,290,81,107,67,1560803766.342069
96,44,32,133,289,78,102,64,1560803766.357017
100,44,31,126,250,77,90,59,1560803766.379533
100,42,37,111,215,71,96,53,1560803766.402489
101,43,36,116,226,73,95,51,1560803766.425217
79,42,38,130,221,69,92,55,1560803766.439595
74,42,38,111,218,73,77,52,1560803766.462095
68,43,35,109,225,82,60,61,1560803766.477065
72,46,30,106,225,81,44,60,1560803766.499582
70,46,31,103,210,87,44,66,1560803766.53051
72,45,28,93,205,87,42,60,1560803766.5370052
64,41,29,97,205,85,45,61,1560803766.5597029
57,37,31,102,176,75,44,49,1560803766.582069
51,30,32,103,176,70,40,57,1560803766.598574
50,30,32,122,169,58,40,50,1560803766.619551
42,28,33,118,181,66,39,48,1560803766.649959
43,29,34,121,187,65,35,51,1560803766.658489
45,30,34,120,185,65,34,50,1560803766.679607
46,31,32,119,183,61,31,36,1560803766.702067
43,30,31,113,206,73,28,39,1560803766.725266
45,39,61,119,178,69,32,39,1560803766.747865
40,37,60,104,164,68,33,35,1560803766.7702198
40,35,60,103,184,80,32,35,1560803766.77709
34,35,62,106,174,86,33,35,1560803766.807782
33,36,62,87,143,76,34,30,1560803766.822123
29,30,45,84,137,74,33,28,1560803766.837063
31,39,64,89,136,73,30,28,1560803766.8595731
35,38,65,84,131,63,31,27,1560803766.882304
39,38,70,101,153,63,36,28,1560803766.905301
39,40,73,104,156,61,39,27,1560803766.919601
38,38,66,92,160,59,36,25,1560803766.942296
35,30,54,93,177,71,38,25,1560803766.965301
32,32,57,95,147,80,37,30,1560803766.979812
25,30,50,75,130,75,33,26,1560803767.002263
29,27,50,81,131,76,49,31,1560803767.025501
32,26,54,94,136,77,52,33,1560803767.040243
41,27,49,91,118,71,54,35,1560803767.062253
40,26,44,99,155,73,54,32,1560803767.092929
42,28,47,98,149,75,64,32,1560803767.099792
40,30,50,94,152,76,56,31,1560803767.123049
45,31,46,81,155,98,55,32,1560803767.1456962
39,30,45,77,159,101,55,29,1560803767.1597419
38,32,45,65,124,97,65,32,1560803767.1829689
37,32,44,79,123,99,60,34,1560803767.205415
37,31,38,80,134,109,68,34,1560803767.227669
35,33,43,85,120,104,69,35,1560803767.243418
35,32,44,83,103,104,71,36,1560803767.265395
34,28,46,82,104,101,73,36,1560803767.279749
38,27,51,73,112,105,100,45,1560803767.3028948
38,27,56,77,89,106,126,53,1560803767.325429
34,25,51,74,105,100,135,53,1560803767.3554971
37,28,53,75,114,102,136,54,1560803767.362887
39,30,54,74,113,105,138,53,1560803767.385411
35,31,50,73,111,110,132,47,1560803767.399704
35,33,46,69,109,97,108,41,1560803767.422966
34,34,49,77,130,101,108,45,1560803767.445459
42,34,50,77,133,108,131,51,1560803767.459792
45,33,50,79,147,115,170,59,1560803767.482987
46,33,54,85,164,121,187,60,1560803767.50549
46,33,56,89,163,132,210,67,1560803767.5197
46,31,55,82,138,147,224,65,1560803767.543665
41,30,56,86,131,150,217,67,1560803767.581098
39,35,59,104,138,147,218,75,1560803767.58265
38,35,64,131,131,145,224,80,1560803767.603003
37,35,67,130,153,135,202,75,1560803767.625438
49,36,67,132,164,111,194,80,1560803767.639703
43,36,65,129,175,106,266,76,1560803767.662883
44,35,63,122,173,101,262,62,1560803767.6859071
47,37,63,92,167,87,250,58,1560803767.7077699
53,36,58,93,148,90,288,68,1560803767.722945
46,38,62,98,184,99,287,66,1560803767.745459
52,40,63,101,180,113,238,67,1560803767.759778
66,38,63,103,174,122,279,71,1560803767.7829099
70,40,58,111,175,136,291,78,1560803767.806566
71,39,66,108,208,178,280,71,1560803767.819734
73,38,63,102,174,178,323,76,1560803767.84284
72,41,65,102,181,178,336,76,1560803767.865427
65,42,64,98,185,172,308,76,1560803767.887968
59,38,61,103,182,166,311,72,1560803767.90296
75,39,54,107,143,122,310,71,1560803767.9258358
71,40,56,106,152,111,259,64,1560803767.947891
83,35,51,106,145,97,283,62,1560803767.9629471
79,37,73,110,136,102,286,55,1560803767.985417
85,37,76,94,151,137,278,48,1560803768.007713
67,35,77,84,162,147,267,48,1560803768.022879
71,33,75,95,142,167,284,51,1560803768.052772
57,33,79,102,152,171,229,56,1560803768.0677311
66,31,62,99,168,175,203,62,1560803768.090309
65,33,59,96,164,165,207,65,1560803768.1052868
66,37,63,129,157,182,222,72,1560803768.127984
63,44,71,131,159,203,225,70,1560803768.158332
61,44,72,130,146,195,236,64,1560803768.167379
60,44,72,124,127,194,242,61,1560803768.187768
63,43,73,128,116,196,234,57,1560803768.202762
67,42,71,116,150,179,234,50,1560803768.225298
69,35,66,103,154,140,233,51,1560803768.2649698
71,33,60,98,156,152,231,51,1560803768.266508
67,32,57,119,177,159,263,52,1560803768.293382
69,32,53,113,175,142,275,57,1560803768.307939
74,35,60,95,144,138,268,53,1560803768.330479
75,33,58,111,154,144,273,51,1560803768.345943
74,35,59,108,154,131,282,53,1560803768.367888
76,35,56,81,123,111,240,51,1560803768.397913
73,42,72,82,118,113,242,49,1560803768.406042
70,41,72,86,130,111,267,67,1560803768.428516
78,40,69,72,152,97,260,91,1560803768.457893
80,42,74,89,143,107,250,95,1560803768.4654481
74,46,77,105,146,122,311,99,1560803768.5042472
82,43,66,111,154,144,322,101,1560803768.5058029
80,39,59,108,178,168,294,92,1560803768.526057
75,45,71,111,147,180,325,69,1560803768.547891
78,45,71,103,145,198,335,85,1560803768.562691
80,44,71,85,146,200,300,83,1560803768.585878
68,42,68,91,150,182,298,81,1560803768.614973
75,43,74,93,113,198,315,85,1560803768.623458
73,41,71,85,113,191,322,96,1560803768.6459188
70,40,70,84,130,172,331,81,1560803768.667973
74,36,69,105,133,184,327,79,1560803768.682245
76,36,71,103,153,186,337,83,1560803768.712765
68,37,66,98,150,202,320,83,1560803768.727752
62,38,73,114,149,218,292,71,1560803768.742244
66,41,83,128,146,229,297,86,1560803768.765248
68,45,85,119,135,216,316,93,1560803768.795516
77,46,89,120,90,221,299,91,1560803768.802229
80,48,90,119,88,187,294,89,1560803768.826112
89,49,83,116,96,186,271,89,1560803768.847704
88,51,84,100,84,171,231,84,1560803768.8872461
88,48,83,110,94,170,188,91,1560803768.8887892
79,48,82,138,103,164,194,90,1560803768.9085882
74,44,79,155,111,192,287,87,1560803768.9304311
83,44,84,170,120,203,289,93,1560803768.9461288
82,40,74,175,134,227,309,103,1560803768.968457
80,41,77,170,134,237,351,103,1560803768.9905019
83,43,76,153,130,254,345,108,1560803769.005506
84,47,84,141,130,223,294,111,1560803769.028081
72,44,87,178,112,221,312,117,1560803769.050562
69,45,88,181,92,215,344,100,1560803769.065528
84,46,87,190,102,206,318,93,1560803769.087973
85,50,103,182,111,188,343,90,1560803769.110516
102,48,96,187,106,217,349,86,1560803769.132381
112,53,101,131,125,200,333,84,1560803769.147356
118,52,102,142,133,191,287,85,1560803769.177276
110,54,103,128,133,214,269,81,1560803769.1937802
113,49,87,160,137,256,244,86,1560803769.207378
96,51,87,154,143,241,236,87,1560803769.2312279
88,46,72,162,141,282,235,84,1560803769.246664
90,46,76,153,138,287,244,90,1560803769.2686882
85,41,83,158,136,276,273,94,1560803769.315753
82,44,82,160,130,261,248,87,1560803769.3174
106,41,81,165,138,260,251,106,1560803769.3272982
107,40,86,177,122,219,273,116,1560803769.351267
104,38,78,180,120,226,267,113,1560803769.366225
111,43,77,194,117,225,238,111,1560803769.3870811
121,44,80,176,114,275,242,116,1560803769.409735
113,44,83,173,90,273,233,101,1560803769.433689
111,48,81,165,103,272,215,79,1560803769.4562712
109,50,87,160,101,310,217,77,1560803769.469888
103,52,94,149,99,320,320,83,1560803769.487474
93,50,88,148,103,289,322,77,1560803769.5147312
84,50,90,151,106,307,346,83,1560803769.529808
82,50,89,149,107,323,351,94,1560803769.552284
81,48,84,149,107,285,362,95,1560803769.567278
92,48,66,150,99,291,296,100,1560803769.589836
90,47,70,142,101,266,312,97,1560803769.613717
91,46,69,151,134,260,287,98,1560803769.628705
89,43,61,143,123,263,272,91,1560803769.6519961
95,44,65,164,121,270,260,91,1560803769.666188
87,35,64,162,133,260,238,78,1560803769.687268
83,37,65,164,133,271,200,76,1560803769.727541
75,40,61,150,97,291,249,80,1560803769.729187
93,44,69,155,107,282,298,83,1560803769.7472448
87,45,68,163,117,272,290,82,1560803769.771204
86,45,67,162,106,263,297,83,1560803769.792177
90,47,74,165,150,252,361,88,1560803769.807119
94,47,78,171,153,254,315,78,1560803769.829582
94,42,78,161,149,259,272,71,1560803769.853606
93,41,86,125,145,295,284,81,1560803769.8685539
95,41,86,122,151,303,286,83,1560803769.9052901
90,37,78,115,105,364,216,83,1560803769.9121099
87,36,77,115,99,341,224,79,1560803769.927327
108,39,74,117,117,329,241,78,1560803769.949547
117,38,68,117,147,322,237,74,1560803769.972084
117,38,67,118,140,327,257,73,1560803770.002741
118,37,69,119,135,262,301,68,1560803770.011213
126,36,62,113,133,267,296,71,1560803770.032244
95,37,60,111,117,298,296,80,1560803770.0547302
83,35,56,108,80,283,300,75,1560803770.085829
81,34,55,117,83,286,269,72,1560803770.100414
98,40,61,132,82,297,219,92,1560803770.1072211
106,43,71,134,82,289,228,95,1560803770.129842
106,43,77,148,84,252,230,88,1560803770.152265
107,46,78,150,93,272,218,84,1560803770.168736
110,48,82,137,98,285,226,85,1560803770.189792
99,51,86,132,99,275,293,81,1560803770.212263
96,54,81,129,112,267,289,75,1560803770.234793
103,53,79,120,116,278,289,81,1560803770.249758
105,53,78,117,104,257,293,83,1560803770.2736778
102,51,76,137,99,226,305,81,1560803770.288718
99,44,61,140,100,211,246,69,1560803770.3097901
102,39,69,166,91,247,268,75,1560803770.340469
97,36,68,194,89,239,278,68,1560803770.347346
93,35,66,198,87,279,274,72,1560803770.3698199
97,39,77,184,81,296,278,73,1560803770.3922231
100,39,78,174,86,306,303,76,1560803770.407275
79,42,89,172,91,281,298,82,1560803770.429859
78,47,91,137,85,281,291,100,1560803770.452506
98,47,96,165,90,216,320,104,1560803770.4746141
98,48,94,169,88,180,309,108,1560803770.489799
93,51,102,171,87,166,274,105,1560803770.512275
101,49,92,158,74,199,274,102,1560803770.527086
100,47,95,163,71,211,268,86,1560803770.5498278
91,48,91,127,60,224,222,78,1560803770.581841
87,50,96,134,59,245,252,79,1560803770.587114
91,50,91,142,48,243,255,76,1560803770.617244
84,47,86,154,54,212,227,66,1560803770.640441
81,46,78,147,54,188,198,65,1560803770.647242
71,44,75,150,51,167,196,66,1560803770.669704
69,39,62,139,56,142,157,57,1560803770.700185
74,37,64,159,68,126,152,54,1560803770.722938
73,36,67,141,66,150,145,51,1560803770.737291
72,40,72,148,70,162,148,51,1560803770.760488
77,46,90,156,73,184,147,57,1560803770.775193
69,44,84,150,77,172,119,54,1560803770.790965
62,44,81,114,72,170,100,55,1560803770.8136358
64,46,92,122,71,157,106,57,1560803770.842982
71,44,96,128,68,161,107,56,1560803770.849773
65,38,81,129,76,135,84,44,1560803770.872195
84,40,82,130,68,140,92,43,1560803770.894773
83,52,115,160,76,144,111,44,1560803770.90976
81,48,103,158,76,143,118,40,1560803770.9341311
78,45,99,148,86,120,117,40,1560803770.97084
80,46,100,141,82,122,124,43,1560803770.978644
61,46,101,144,83,114,119,41,1560803771.000366
56,31,66,116,71,129,108,37,1560803771.014582
64,31,60,102,69,117,97,38,1560803771.045018
65,31,57,101,98,118,89,39,1560803771.05357
61,30,51,90,123,109,79,31,1560803771.074786
61,31,48,81,125,108,65,29,1560803771.08979
62,30,37,73,146,83,49,32,1560803771.1277778
61,30,40,84,170,80,40,33,1560803771.143512
66,33,37,80,162,72,40,35,1560803771.149583
65,35,38,95,153,70,37,36,1560803771.172164
64,32,39,96,155,73,45,38,1560803771.19605
68,32,35,96,161,69,51,36,1560803771.211191
62,33,33,98,165,67,64,36,1560803771.232252
45,31,41,105,172,94,106,34,1560803771.2555141
47,30,42,101,214,98,111,32,1560803771.293541
70,35,42,103,224,105,109,30,1560803771.295175
72,38,42,97,216,107,109,32,1560803771.3151948
71,39,44,103,220,104,102,29,1560803771.329726
72,40,38,99,248,86,59,39,1560803771.3521929
75,40,38,92,219,109,49,39,1560803771.374766
85,47,39,94,221,101,57,127,1560803771.400021
80,44,38,100,219,100,49,133,1560803771.4202619
79,42,36,85,211,116,48,135,1560803771.4345741
79,40,35,91,187,121,47,132,1560803771.450297
77,40,32,104,194,97,47,135,1560803771.472261
44,30,34,137,214,101,34,69,1560803771.503651
45,36,41,151,243,102,39,60,1560803771.518427
48,37,41,168,358,90,36,56,1560803771.533828
60,39,42,173,355,92,35,60,1560803771.554787
57,36,45,166,362,94,34,56,1560803771.57119
51,35,43,138,381,98,37,48,1560803771.59229
54,32,38,124,399,102,34,44,1560803771.6230571
67,42,39,100,304,100,34,46,1560803771.629846
61,43,38,96,306,90,35,47,1560803771.6523461
62,44,39,98,314,101,44,48,1560803771.6757882
65,45,40,115,314,97,43,47,1560803771.697921
64,43,41,115,266,97,45,54,1560803771.712278
53,37,43,132,279,100,52,56,1560803771.7434108
48,36,43,135,272,104,50,53,1560803771.758045
46,36,39,138,258,93,48,56,1560803771.780472
45,32,34,132,246,83,45,57,1560803771.802923
44,33,35,135,266,98,63,66,1560803771.817913
42,35,31,121,243,89,79,69,1560803771.832205
44,34,28,113,246,84,91,69,1560803771.862991
47,35,31,112,263,89,93,65,1560803771.8779118
44,35,32,113,236,89,93,70,1560803771.892169
41,35,31,114,238,90,87,62,1560803771.914767
34,28,30,111,292,101,78,61,1560803771.9379199
39,31,31,115,298,108,76,65,1560803771.952213
39,34,30,122,300,117,75,73,1560803771.974743
45,37,33,132,344,120,78,69,1560803771.997892
46,41,35,125,351,103,99,86,1560803772.020471
48,41,38,139,315,133,95,84,1560803772.034722
44,39,40,137,303,129,90,103,1560803772.0579212
45,37,41,137,318,120,118,108,1560803772.0811741
41,40,47,167,319,118,148,124,1560803772.110248
41,36,46,187,360,131,145,116,1560803772.133576
39,38,47,183,377,118,145,125,1560803772.135132
38,38,46,205,420,149,168,125,1560803772.154717
58,44,45,210,395,151,161,127,1560803772.177964
58,42,40,186,445,167,148,117,1560803772.200427
61,41,40,182,429,165,152,167,1560803772.2225971
62,41,40,185,412,156,171,166,1560803772.253567
62,43,41,164,380,126,151,158,1560803772.255179
43,35,42,154,371,133,149,152,1560803772.274719
45,33,42,155,296,138,145,153,1560803772.297771
39,31,41,167,272,132,131,107,1560803772.320899
35,28,38,178,321,142,112,113,1560803772.33474
43,25,36,187,326,159,125,111,1560803772.3579302
43,28,36,188,359,194,115,121,1560803772.372275
44,32,36,193,348,184,109,128,1560803772.394827
47,32,35,165,345,189,136,121,1560803772.435106
48,39,42,146,307,190,138,113,1560803772.436529
43,40,42,130,336,190,127,117,1560803772.4547849
42,40,44,129,349,150,143,130,1560803772.478025
40,39,42,131,326,174,149,135,1560803772.492276
45,40,42,166,339,173,130,133,1560803772.5147061
46,38,39,174,335,160,150,149,1560803772.537652
46,40,39,178,295,158,156,147,1560803772.5615358
44,38,37,182,243,160,143,136,1560803772.577734
43,35,35,173,247,150,140,124,1560803772.5978858
36,34,38,152,214,144,154,124,1560803772.628331
35,30,34,147,201,140,130,103,1560803772.634675
33,27,35,143,223,136,119,116,1560803772.665124
34,30,36,148,257,134,136,112,1560803772.704274
35,31,34,144,270,114,141,115,1560803772.7058449
34,30,31,135,283,137,120,117,1560803772.73295
33,32,34,124,300,143,118,132,1560803772.7404962
34,33,34,116,301,156,127,119,1560803772.754829
35,32,31,97,280,152,110,111,1560803772.777908
33,34,34,90,269,151,90,102,1560803772.800458
35,33,33,103,284,132,104,113,1560803772.823183
36,33,31,119,312,163,106,91,1560803772.8378189
40,36,29,127,302,145,101,86,1560803772.86027
39,33,31,136,339,144,98,84,1560803772.874779
41,34,30,136,356,149,100,85,1560803772.89766
39,33,32,128,322,148,79,63,1560803772.920366
38,34,34,129,299,111,70,57,1560803772.934767
30,28,35,136,341,105,57,58,1560803772.965557
30,30,32,134,314,113,84,58,1560803772.9804509
26,26,30,131,303,104,86,62,1560803772.994738
25,27,30,143,340,113,89,70,1560803773.018408
25,24,33,156,350,105,90,71,1560803773.040463
25,27,32,150,355,116,91,70,1560803773.0555189
25,28,37,144,350,118,57,69,1560803773.085501
28,29,37,143,333,115,49,62,1560803773.100526
32,30,37,128,319,105,41,49,1560803773.114741
32,30,37,112,324,122,39,47,1560803773.1380289
33,32,52,103,260,109,37,44,1560803773.16054
36,39,63,101,256,100,38,45,1560803773.1752849
35,43,72,107,262,97,33,42,1560803773.1979198
31,46,71,105,273,91,34,41,1560803773.220427
31,48,73,95,228,64,31,33,1560803773.2599769
30,46,68,94,247,62,31,33,1560803773.261528
25,40,57,102,260,58,27,28,1560803773.287719
23,35,50,92,266,67,25,26,1560803773.294749
24,32,56,93,239,79,27,27,1560803773.32549
24,29,51,86,287,81,27,26,1560803773.3404438
24,26,52,96,277,85,25,26,1560803773.363315
27,32,68,91,251,88,29,27,1560803773.3930411
28,34,71,101,251,80,31,26,1560803773.407904
27,34,70,96,236,78,32,24,1560803773.414728
29,38,96,95,186,75,35,25,1560803773.43784
28,39,94,96,227,76,36,26,1560803773.460397
27,34,82,92,228,79,35,25,1560803773.482917
26,32,83,83,240,78,33,25,1560803773.4983711
28,33,83,87,270,71,32,24,1560803773.521117
29,30,55,103,307,78,31,23,1560803773.53485
30,31,64,112,285,84,32,21,1560803773.5577679
31,31,67,112,307,81,30,23,1560803773.587707
32,30,60,115,305,81,31,23,1560803773.602727
31,27,57,118,294,84,31,24,1560803773.632865
27,28,64,109,275,91,30,23,1560803773.640347
27,29,57,88,280,85,31,28,1560803773.662801
25,29,56,82,265,78,29,25,1560803773.677748
25,33,59,87,244,80,29,26,1560803773.700974
25,33,58,81,259,81,30,24,1560803773.72316
25,35,55,92,257,71,30,26,1560803773.737742
26,35,54,93,248,68,26,22,1560803773.760694
26,36,53,102,251,68,30,23,1560803773.782788
24,34,50,100,266,73,29,22,1560803773.797785
25,34,52,102,261,75,32,24,1560803773.828199
23,29,46,90,240,74,29,23,1560803773.842801
24,29,52,90,246,77,30,23,1560803773.857749
23,27,52,84,276,93,31,23,1560803773.880395
25,26,56,84,310,95,33,24,1560803773.9191198
25,27,56,80,323,92,30,25,1560803773.920639
25,29,57,88,331,89,29,28,1560803773.940643
24,27,47,85,319,92,30,28,1560803773.962786
25,27,46,103,318,81,27,29,1560803773.977779
25,30,42,95,315,77,25,28,1560803774.007809
23,29,38,97,283,71,23,26,1560803774.022747
23,29,43,87,274,73,27,23,1560803774.037116
23,27,48,101,317,65,26,21,1560803774.0600462
26,29,52,87,316,64,28,23,1560803774.083296
28,30,58,95,345,62,27,25,1560803774.105412
29,31,59,92,353,65,29,25,1560803774.120284
29,29,52,91,368,72,28,25,1560803774.142792
33,33,47,79,346,79,26,24,1560803774.1570618
31,33,49,78,332,91,29,24,1560803774.180474
27,29,46,105,286,97,32,20,1560803774.202856
26,29,48,116,289,96,32,22,1560803774.217103
27,30,49,116,285,89,30,22,1560803774.2410731
25,27,54,121,271,104,32,25,1560803774.262043
25,26,49,144,350,101,31,25,1560803774.292081
25,26,42,120,330,96,31,27,1560803774.300991
25,27,46,110,329,95,30,25,1560803774.329581
25,27,46,111,316,102,31,25,1560803774.34624
24,25,41,108,310,92,29,23,1560803774.3615801
23,30,51,76,208,82,28,21,1560803774.391125
24,30,54,78,216,82,26,18,1560803774.4046268
23,29,51,82,222,84,27,20,1560803774.427151
25,30,52,83,232,79,26,20,1560803774.442296
21,30,51,92,249,97,27,20,1560803774.4660132
21,26,46,86,247,95,26,20,1560803774.481055
25,28,45,94,250,101,25,22,1560803774.5020971
25,28,42,93,229,108,28,23,1560803774.5320768
24,27,40,89,215,104,28,24,1560803774.5411448
25,29,40,78,227,87,29,27,1560803774.577934
28,30,35,81,230,107,28,29,1560803774.584526
24,28,36,70,215,105,29,27,1560803774.601549
24,28,41,69,227,100,27,29,1560803774.6311722
22,28,42,79,254,102,28,28,1560803774.6448212
22,25,46,73,243,92,27,26,1560803774.661594
20,23,46,71,230,83,28,24,1560803774.682224
20,26,42,74,246,85,28,26,1560803774.7047539
23,28,42,69,241,82,30,22,1560803774.721144
22,29,44,63,219,85,30,22,1560803774.749677
21,30,42,76,207,90,28,23,1560803774.764715
22,32,41,86,245,89,30,24,1560803774.781183
22,30,45,89,240,80,31,22,1560803774.809709
24,29,43,93,238,78,27,23,1560803774.824683
26,30,49,89,232,78,28,23,1560803774.8411472
27,30,48,81,236,81,31,21,1560803774.886158
27,30,49,75,199,80,29,21,1560803774.887631
27,28,45,67,195,81,26,21,1560803774.901169
24,31,49,65,219,84,29,20,1560803774.92219
26,29,39,71,228,82,29,20,1560803774.944756
27,29,40,72,212,73,27,21,1560803774.9612288
25,29,41,68,195,59,27,21,1560803774.991307
29,31,41,71,203,65,28,22,1560803775.004842
27,29,41,77,221,88,28,25,1560803775.01989
23,30,44,68,209,92,30,25,1560803775.0423179
22,30,42,71,218,97,30,25,1560803775.0727632
26,29,41,72,225,100,30,26,1560803775.095098
24,30,43,71,246,96,30,26,1560803775.1035721
25,29,41,62,201,72,29,24,1560803775.1260679
25,26,40,64,202,80,25,23,1560803775.140276
25,28,40,67,206,79,26,23,1560803775.162098
22,27,39,67,217,75,26,23,1560803775.186168
19,22,35,64,196,77,25,23,1560803775.199625
19,23,30,70,203,77,26,24,1560803775.222121
22,25,26,70,211,62,28,24,1560803775.244806
23,23,31,61,203,59,30,25,1560803775.267273
23,21,34,53,200,68,30,30,1560803775.289755
28,23,35,62,180,68,31,31,1560803775.304774
27,24,36,56,180,69,30,34,1560803775.335443
27,23,40,83,180,72,29,36,1560803775.349633
28,24,36,83,182,75,26,37,1560803775.3646052
32,27,34,99,240,66,26,40,1560803775.3795722
30,28,35,104,263,67,25,43,1560803775.403527
33,28,34,110,267,71,25,40,1560803775.440238
35,28,35,102,259,66,24,39,1560803775.447081
36,31,34,111,268,62,24,38,1560803775.462106
41,29,34,100,224,66,23,29,1560803775.4845948
47,29,33,94,225,63,24,28,1560803775.507282
47,29,34,88,257,62,28,32,1560803775.522247
47,30,30,84,259,83,30,33,1560803775.54477
46,28,32,95,253,88,32,37,1560803775.567268
39,29,33,97,279,88,33,38,1560803775.589724
31,28,32,101,305,89,34,39,1560803775.6047778
30,32,34,114,295,95,33,40,1560803775.627289
29,30,33,128,307,99,34,40,1560803775.642214
31,30,33,142,320,101,36,42,1560803775.672926
35,32,37,165,309,98,44,47,1560803775.687268
34,34,40,175,298,108,46,49,1560803775.703686
37,33,43,178,305,104,48,46,1560803775.72472
82,60,48,176,339,93,72,60,1560803775.747253
85,64,48,170,360,101,78,59,1560803775.762233
95,66,45,160,366,105,110,59,1560803775.793344
100,68,43,156,379,99,112,64,1560803775.807278
101,70,41,153,385,98,116,67,1560803775.822206
75,55,38,178,385,111,107,64,1560803775.8604279
71,52,39,174,351,99,104,63,1560803775.867238
57,50,39,174,351,98,78,66,1560803775.882254
87,49,40,183,320,108,92,58,1560803775.91289
88,47,41,192,393,117,99,59,1560803775.92732
84,40,38,186,420,99,94,49,1560803775.942308
93,42,37,178,443,100,92,47,1560803775.964796
100,43,39,174,461,104,83,38,1560803775.995527
71,39,38,157,454,101,59,38,1560803776.00229
70,41,36,145,426,101,43,44,1560803776.026657
67,42,38,114,366,105,41,41,1560803776.04726
55,38,39,117,363,107,39,41,1560803776.0620198
38,35,47,143,389,105,40,41,1560803776.092951
35,37,47,153,421,106,41,41,1560803776.107199
28,34,50,154,390,100,32,28,1560803776.122233
30,33,52,175,438,107,38,31,1560803776.144743
30,36,56,183,425,105,40,34,1560803776.1672368
30,34,48,173,444,109,39,32,1560803776.182171
34,33,49,164,421,100,37,31,1560803776.212893
34,32,47,165,404,95,40,29,1560803776.227191
32,31,46,144,387,92,41,28,1560803776.2495382
29,27,42,134,390,91,39,23,1560803776.264542
31,27,43,135,389,109,38,24,1560803776.287173
29,28,42,134,402,110,38,24,1560803776.309527
73,32,40,143,487,118,35,25,1560803776.324593
75,32,47,139,493,117,30,25,1560803776.347094
78,35,62,155,508,122,33,28,1560803776.364231
78,36,60,148,452,101,31,29,1560803776.384558
81,36,62,164,449,98,35,33,1560803776.407068
59,34,67,145,349,88,34,34,1560803776.437733
62,36,61,154,362,84,33,33,1560803776.444565
68,36,61,136,336,78,31,33,1560803776.467025
77,37,66,125,329,79,34,35,1560803776.489526
81,37,67,109,344,94,34,32,1560803776.506148
96,38,67,120,424,89,33,31,1560803776.5286632
98,37,74,105,373,89,33,30,1560803776.549618
98,38,72,113,370,100,38,37,1560803776.5646448
95,36,67,120,373,93,37,36,1560803776.587084
127,39,68,132,389,75,36,39,1560803776.609548
116,36,64,134,310,75,37,40,1560803776.624567
114,36,62,161,361,86,40,43,1560803776.656728
116,38,56,161,398,83,41,40,1560803776.669605
132,42,55,154,401,83,46,43,1560803776.6928089
102,39,53,142,386,104,51,42,1560803776.715111
98,41,64,132,433,108,52,44,1560803776.729645
105,39,58,104,434,101,49,43,1560803776.74618
127,42,72,102,408,93,46,45,1560803776.767192
118,41,74,117,458,100,43,41,1560803776.789706
118,46,82,165,455,87,41,41,1560803776.804869
120,48,79,171,441,88,43,47,1560803776.8272
121,58,102,172,428,86,46,49,1560803776.857748
110,61,93,175,458,94,48,44,1560803776.8646321
118,69,98,164,409,95,50,53,1560803776.887136
125,66,94,128,463,95,49,53,1560803776.909507
125,68,102,118,425,93,48,49,1560803776.9245949
133,67,88,148,470,97,51,50,1560803776.947259
135,65,85,143,489,97,48,52,1560803776.969579
127,60,82,201,559,96,49,44,1560803776.9845881
122,62,82,195,539,100,47,44,1560803777.00714
138,61,70,198,582,104,46,45,1560803777.030285
143,64,64,195,569,114,44,44,1560803777.044573
141,65,64,192,567,109,44,41,1560803777.0670981
137,65,66,137,567,111,44,44,1560803777.0907369
134,66,65,189,598,118,55,45,1560803777.10468
149,66,63,185,581,114,58,50,1560803777.127473
149,75,57,194,627,115,60,53,1560803777.15079
145,83,58,205,647,121,63,53,1560803777.1649768
141,82,54,206,617,126,63,51,1560803777.187438
140,80,51,169,580,128,54,48,1560803777.212347
171,94,62,177,582,129,53,44,1560803777.2333279
167,82,61,155,522,120,47,39,1560803777.247173
162,72,59,159,559,119,46,40,1560803777.270598
173,75,59,172,548,112,47,45,1560803777.293125
180,87,62,164,521,93,47,47,1560803777.307832
132,77,59,167,535,107,55,48,1560803777.330694
122,82,70,165,553,102,60,52,1560803777.353177
120,81,74,149,459,96,61,53,1560803777.367727
116,82,75,131,469,95,57,48,1560803777.390817
154,83,73,125,528,94,56,48,1560803777.41364
152,77,67,144,591,85,48,42,1560803777.427581
155,70,59,156,552,86,43,37,1560803777.4507859
157,70,52,156,535,87,42,34,1560803777.473207
171,72,46,155,539,83,41,38,1560803777.48769
138,56,47,165,591,84,41,36,1560803777.510742
126,54,53,141,523,84,44,37,1560803777.533116
125,64,62,136,512,88,50,42,1560803777.5476131
137,63,64,137,528,85,49,42,1560803777.570777
133,63,71,142,492,82,51,45,1560803777.593335
125,62,72,126,360,93,52,46,1560803777.607569
126,65,70,131,334,101,56,51,1560803777.630744
150,69,66,113,371,99,51,49,1560803777.6532161
180,71,69,112,393,103,53,53,1560803777.667684
165,63,63,108,416,105,52,49,1560803777.698219
166,67,72,136,410,97,52,47,1560803777.713356
176,64,75,146,467,88,47,45,1560803777.727601
154,49,75,150,509,88,48,44,1560803777.75151
126,52,73,146,487,86,47,40,1560803777.773335
140,61,83,146,497,86,47,42,1560803777.803437
138,60,75,125,507,85,45,42,1560803777.810879
145,61,70,139,542,95,46,41,1560803777.833227
145,63,68,138,547,89,47,39,1560803777.8475552
134,61,71,151,541,89,45,35,1560803777.870722
131,53,60,156,552,91,46,33,1560803777.900726
129,49,58,154,575,100,49,33,1560803777.907682
150,51,55,129,488,88,46,39,1560803777.930617
150,51,54,121,462,87,42,39,1560803777.953371
150,49,47,103,471,82,42,39,1560803777.9675279
137,48,51,93,440,83,40,39,1560803777.9912698
146,50,55,120,471,79,41,39,1560803778.013345
109,46,57,121,513,82,41,30,1560803778.027618
108,45,61,122,542,91,41,31,1560803778.050786
117,48,60,127,543,94,40,32,1560803778.073826
125,48,61,142,593,97,43,33,1560803778.087558
114,51,68,136,565,92,43,35,1560803778.120203
130,52,68,137,517,84,41,35,1560803778.133182
159,59,68,137,491,82,42,36,1560803778.147743
150,53,68,134,524,79,42,34,1560803778.178391
144,53,63,119,460,78,37,31,1560803778.193257
146,50,52,106,493,85,37,30,1560803778.207608
161,47,49,93,539,85,35,33,1560803778.230937
134,38,41,106,567,77,37,32,1560803778.253442
126,38,40,109,527,83,40,32,1560803778.275932
133,40,46,113,557,79,41,32,1560803778.2908301
132,41,49,113,550,74,38,31,1560803778.313455
98,43,49,119,506,80,40,29,1560803778.336982
99,42,60,120,472,89,40,29,1560803778.350811
100,42,62,118,506,88,36,28,1560803778.373259
91,45,64,151,506,112,41,30,1560803778.395813
100,51,63,151,447,110,43,33,1560803778.410809
99,53,67,171,510,125,47,34,1560803778.433356
96,52,59,174,473,126,50,37,1560803778.4563382
101,58,69,181,482,127,51,38,1560803778.478848
107,57,67,156,430,105,49,40,1560803778.493467
101,56,65,155,451,104,48,39,1560803778.516008
92,53,61,137,451,80,42,35,1560803778.530891
94,60,64,126,493,84,39,35,1560803778.553323
92,55,52,115,478,81,41,34,1560803778.575944
131,55,47,100,481,78,36,32,1560803778.590834
133,49,48,104,496,87,39,32,1560803778.613312
132,51,49,110,430,101,43,32,1560803778.63588
127,47,53,109,431,92,44,29,1560803778.6507368
123,46,52,114,416,92,42,30,1560803778.680926
89,66,50,116,410,99,44,35,1560803778.695978
94,70,54,111,371,95,41,35,1560803778.710844
100,70,61,107,386,88,38,36,1560803778.733301
107,70,53,103,321,87,35,39,1560803778.756285
114,75,52,91,304,82,32,38,1560803778.77025
110,55,53,90,352,79,30,32,1560803778.7940528
101,49,55,86,334,76,30,32,1560803778.815857
105,53,51,73,337,75,29,33,1560803778.830211
110,49,56,72,317,74,26,30,1560803778.853497
127,43,57,74,329,76,28,30,1560803778.875891
118,44,60,72,298,74,28,29,1560803778.890158
128,44,55,70,310,70,26,29,1560803778.920932
121,37,48,66,271,55,27,28,1560803778.93579
118,39,41,64,322,53,29,30,1560803778.950097
100,38,43,77,298,50,27,30,1560803778.973341
114,37,44,99,274,52,29,33,1560803778.99556
101,42,47,97,279,47,28,33,1560803779.010228
104,45,48,104,351,50,28,33,1560803779.033798
100,43,49,109,310,52,24,32,1560803779.055834
103,44,51,104,307,58,27,32,1560803779.070174
98,41,47,84,300,51,28,34,1560803779.093972
129,41,47,93,294,59,31,51,1560803779.115845
130,48,59,89,227,58,30,57,1560803779.130311
144,47,58,83,270,57,30,59,1560803779.1533651
155,52,63,82,358,63,33,62,1560803779.1834302
151,53,65,81,365,67,32,62,1560803779.190339
134,49,65,77,355,60,31,51,1560803779.2209802
149,39,56,74,349,59,31,56,1560803779.2359712
143,48,63,80,309,56,37,60,1560803779.258393
158,47,61,87,212,45,37,72,1560803779.273453
171,48,64,119,202,45,40,90,1560803779.295953
171,51,62,121,248,57,41,94,1560803779.3184779
173,54,64,123,244,57,45,102,1560803779.333477
208,48,60,122,256,59,43,104,1560803779.355307
195,45,57,123,246,60,39,114,1560803779.396069
192,47,53,96,258,59,41,117,1560803779.400196
204,48,59,104,235,50,41,174,1560803779.4154232
224,49,60,106,239,48,41,186,1560803779.4541821
198,50,59,105,243,51,45,201,1560803779.455919
192,45,56,104,255,49,47,200,1560803779.475275
204,48,60,109,256,47,44,208,1560803779.499814
198,47,62,105,262,50,46,170,1560803779.521735
160,45,63,105,258,54,46,151,1560803779.535388
187,43,62,104,255,48,44,140,1560803779.557781
188,54,77,93,240,50,44,137,1560803779.5743349
182,49,74,96,231,48,43,128,1560803779.5952141
192,51,69,102,221,44,44,133,1560803779.6268961
212,48,64,106,255,48,44,158,1560803779.6343381
182,47,68,112,258,48,38,149,1560803779.655377
198,49,53,117,277,46,38,147,1560803779.677874
196,52,77,114,299,50,36,135,1560803779.694271
212,54,84,118,353,54,33,162,1560803779.722766
193,57,85,115,339,48,31,137,1560803779.737771
219,62,88,111,329,50,33,152,1560803779.754332
226,55,87,107,351,52,35,152,1560803779.775218
238,50,75,111,347,52,40,167,1560803779.797704
219,48,66,98,322,51,39,174,1560803779.81445
231,51,65,98,308,51,39,178,1560803779.835341
230,59,54,94,301,48,40,164,1560803779.857655
223,57,63,98,345,51,36,182,1560803779.874349
201,59,56,87,322,47,35,169,1560803779.896808
241,57,59,89,289,45,35,134,1560803779.917699
237,54,61,86,309,49,36,142,1560803779.934338
230,40,73,96,320,50,33,149,1560803779.962773
220,36,66,113,301,58,36,124,1560803779.977752
244,35,65,112,303,58,33,162,1560803779.994992
201,38,65,113,305,58,33,158,1560803780.022768
220,46,63,110,287,55,31,149,1560803780.037842
213,47,58,103,326,56,38,183,1560803780.054359
210,49,60,94,275,45,36,190,1560803780.082841
196,50,57,99,285,48,35,163,1560803780.099324
206,51,54,98,288,49,34,163,1560803780.114276
193,45,55,104,282,49,42,175,1560803780.13541
208,45,49,117,254,56,50,191,1560803780.1594589
226,49,51,122,239,63,55,255,1560803780.1883
282,65,63,124,236,62,60,279,1560803780.196857
271,67,69,119,232,63,62,278,1560803780.233405
276,65,70,116,251,63,56,274,1560803780.240025
276,66,72,111,254,56,46,244,1560803780.254694
267,64,70,109,275,46,40,172,1560803780.2772288
195,50,68,104,270,43,32,126,1560803780.301882
222,47,61,111,273,40,28,137,1560803780.315284
203,46,66,118,289,39,31,161,1560803780.3451982
179,57,87,118,272,37,34,171,1560803780.361929
188,59,85,114,262,37,38,169,1560803780.375329
203,59,84,127,315,38,38,173,1560803780.397772
168,61,90,131,331,37,39,162,1560803780.428442
163,62,88,128,310,37,38,128,1560803780.435335
157,58,66,126,325,41,33,99,1560803780.4577699
159,57,70,122,314,40,28,99,1560803780.480199
148,53,72,121,285,39,29,95,1560803780.510988
154,53,68,115,254,40,30,96,1560803780.5334609
174,53,67,111,284,46,30,122,1560803780.5484881
182,59,70,113,268,48,34,127,1560803780.555356
168,57,74,109,306,54,35,135,1560803780.579467
177,57,71,107,295,54,34,144,1560803780.60016
189,55,77,130,326,52,33,144,1560803780.61538
175,56,82,132,309,50,31,121,1560803780.6377869
182,40,80,136,315,48,29,127,1560803780.6602778
199,39,77,135,313,45,30,132,1560803780.682819
179,39,76,127,322,47,29,115,1560803780.699401
166,38,70,118,320,45,27,113,1560803780.736639
184,36,67,118,327,45,30,136,1560803780.73839
210,38,70,109,362,47,35,181,1560803780.773797
229,42,62,117,324,44,35,188,1560803780.7802289
247,47,67,122,347,46,37,193,1560803780.795291
261,48,69,101,317,48,40,195,1560803780.817826
264,46,65,114,303,45,38,193,1560803780.841725
235,47,68,124,256,42,34,149,1560803780.85538
196,45,70,120,308,44,33,129,1560803780.879264
215,60,72,115,268,39,38,146,1560803780.900276
202,65,70,126,300,46,39,163,1560803780.922786
196,66,73,113,342,53,40,155,1560803780.9459631
225,68,71,101,338,53,41,148,1560803780.960177
224,69,74,98,309,56,42,161,1560803780.975183
189,54,68,104,298,59,37,144,1560803781.015133
188,46,71,108,285,56,32,119,1560803781.020265
175,44,73,112,233,51,31,120,1560803781.035327
136,40,70,119,256,53,29,122,1560803781.057823
155,44,67,121,252,48,29,104,1560803781.0802839
160,39,68,112,248,46,28,105,1560803781.095342
155,42,67,105,252,42,32,112,1560803781.119615
163,48,68,126,292,46,35,130,1560803781.140043
188,50,68,134,271,44,35,132,1560803781.162811
172,48,72,147,266,43,33,132,1560803781.177874
166,50,69,158,280,45,34,124,1560803781.200274
177,49,65,161,268,44,31,120,1560803781.2307131
211,44,60,153,236,41,29,148,1560803781.239475
204,47,57,147,253,41,28,147,1560803781.260167
215,41,58,130,254,42,32,161,1560803781.299205
223,42,62,122,265,39,32,161,1560803781.300876
228,44,64,118,276,41,34,174,1560803781.3203151
204,47,64,105,260,38,32,133,1560803781.350792
243,51,64,106,242,37,38,151,1560803781.3681529
238,55,60,110,246,39,36,141,1560803781.380139
236,55,60,116,253,39,38,146,1560803781.4029539
245,58,64,106,220,37,41,138,1560803781.4176311
271,61,68,113,250,37,42,156,1560803781.440167
242,59,70,114,254,38,38,156,1560803781.462785
257,62,75,116,243,39,37,156,1560803781.4777858
251,70,75,112,246,39,35,148,1560803781.5002131
243,66,68,121,250,38,31,137,1560803781.5228631
194,64,63,124,256,54,34,112,1560803781.5393028
170,58,64,124,251,61,35,82,1560803781.569002
169,54,58,122,249,60,35,79,1560803781.591106
203,43,60,118,253,62,37,105,1560803781.605852
193,46,63,118,250,63,38,118,1560803781.6202571
218,42,69,112,244,50,39,124,1560803781.651123
265,47,69,102,238,44,41,144,1560803781.666095
264,45,68,100,346,47,41,146,1560803781.688566
240,43,62,102,320,48,43,167,1560803781.702808
258,55,71,99,344,47,42,168,1560803781.7177482
239,60,69,100,382,51,38,164,1560803781.740203
197,58,70,107,391,50,34,147,1560803781.762752
174,58,74,104,316,46,33,137,1560803781.777759
167,65,72,99,311,42,28,88,1560803781.80828
151,58,62,105,303,45,28,65,1560803781.822867
166,55,59,121,317,48,27,53,1560803781.8376212
160,68,55,135,364,58,29,46,1560803781.862099
192,73,54,145,356,58,30,47,1560803781.884613
195,73,56,149,362,59,29,43,1560803781.898266
173,68,52,148,365,59,29,40,1560803781.921975
156,67,46,144,362,56,30,38,1560803781.94314
144,56,46,170,456,78,36,40,1560803781.965926
129,53,38,166,477,84,39,36,1560803781.996026
131,52,37,171,523,92,40,36,1560803782.002765
141,73,36,167,514,93,44,40,1560803782.027909
137,73,36,168,476,97,45,39,1560803782.04029
138,75,37,124,363,72,39,38,1560803782.071177
111,72,51,143,362,69,37,37,1560803782.086112
121,73,50,177,403,94,46,38,1560803782.100261
107,56,58,179,406,94,46,37,1560803782.122761
106,61,60,177,431,93,44,37,1560803782.153311
108,56,59,185,432,99,48,40,1560803782.161973
126,57,49,169,434,104,50,41,1560803782.182889
112,57,51,135,372,81,42,48,1560803782.206073
114,54,48,134,364,80,41,48,1560803782.2202241
116,47,49,124,336,77,39,49,1560803782.242881
115,45,48,114,329,73,34,45,1560803782.266571
100,56,57,118,300,75,29,42,1560803782.280272
107,57,64,119,303,82,33,31,1560803782.302875
113,57,61,112,303,82,33,27,1560803782.326034
144,59,60,108,279,83,35,33,1560803782.340291
148,61,60,117,310,92,41,37,1560803782.362797
143,52,66,113,325,83,41,38,1560803782.3935962
137,46,59,121,307,91,44,37,1560803782.4002962
162,49,62,122,313,146,50,41,1560803782.422871
136,44,60,125,330,149,50,36,1560803782.4536211
128,45,59,113,310,154,48,36,1560803782.4603028
121,39,44,109,284,156,50,33,1560803782.4829462
139,37,49,112,263,151,58,36,1560803782.506387
108,45,51,118,283,103,55,32,1560803782.522668
117,49,50,115,289,112,59,34,1560803782.542882
147,48,59,132,256,106,65,35,1560803782.566104
158,74,60,145,288,107,75,39,1560803782.580321
140,79,54,141,282,204,76,37,1560803782.602912
141,72,55,143,257,280,80,40,1560803782.626123
133,74,59,150,245,300,92,42,1560803782.64033
115,75,58,140,242,325,97,42,1560803782.6627882
130,51,61,197,360,364,117,39,1560803782.686124
139,47,62,189,372,345,128,41,1560803782.708555
145,54,57,192,393,305,127,38,1560803782.731009
216,52,57,192,434,325,140,58,1560803782.746063
226,57,55,189,435,311,137,62,1560803782.7602642
226,55,52,128,395,277,117,63,1560803782.798411
225,56,52,139,384,284,111,66,1560803782.806093
252,64,58,131,377,272,111,77,1560803782.828574
286,65,62,143,368,247,82,65,1560803782.851536
287,73,60,169,387,249,87,68,1560803782.867691
280,75,69,174,323,245,102,68,1560803782.880183
284,80,72,168,320,242,92,67,1560803782.9027119
272,69,74,212,424,242,97,60,1560803782.932949
234,78,84,223,395,260,112,64,1560803782.971573
260,72,91,236,405,261,108,61,1560803782.9731698
315,78,85,247,462,277,100,69,1560803782.985265
318,79,83,258,478,258,102,75,1560803783.007895
330,87,92,254,473,297,97,77,1560803783.023094
309,89,88,243,475,366,111,73,1560803783.045836
290,89,94,242,556,409,113,71,1560803783.075968
234,91,98,231,516,401,115,70,1560803783.083923
225,83,97,218,501,403,116,61,1560803783.1061
196,77,89,221,423,442,128,56,1560803783.1284199
176,68,87,212,422,398,121,54,1560803783.143598
274,73,75,184,280,347,117,66,1560803783.180918
309,64,75,209,281,420,145,70,1560803783.195907
349,79,80,215,278,440,140,83,1560803783.20509
351,77,85,216,397,379,134,86,1560803783.233588
350,77,81,227,383,382,139,88,1560803783.248564
283,70,79,225,380,448,160,83,1560803783.263672
252,79,84,226,467,407,143,84,1560803783.2860339
226,69,92,221,477,398,153,78,1560803783.308196
242,71,81,184,381,434,154,74,1560803783.3240669
252,75,76,169,408,443,147,81,1560803783.346566
252,74,81,173,412,382,122,76,1560803783.3684552
299,67,81,143,328,366,108,72,1560803783.383647
286,72,73,156,392,341,107,70,1560803783.405991
282,79,78,162,427,301,111,72,1560803783.428059
289,70,88,175,410,232,100,67,1560803783.451011
305,71,85,172,408,263,132,79,1560803783.4659948
262,71,78,192,422,259,141,81,1560803783.488563
297,74,79,182,363,276,142,85,1560803783.5027962
308,79,80,181,307,405,139,88,1560803783.52598
318,81,88,216,393,433,138,93,1560803783.5483599
294,85,90,225,441,415,115,85,1560803783.562629
324,95,91,205,411,547,146,81,1560803783.5930212
339,88,89,207,399,559,147,80,1560803783.60801
401,77,90,233,464,479,150,81,1560803783.623084
390,78,82,218,439,481,167,80,1560803783.646008
405,85,83,213,384,510,198,87,1560803783.668974
432,80,82,209,407,486,209,104,1560803783.6827981
392,82,90,211,461,538,217,102,1560803783.706361
304,84,98,187,393,579,217,95,1560803783.728427
334,93,97,159,357,634,217,98,1560803783.742743
316,86,97,165,372,625,210,92,1560803783.7733462
242,79,97,189,388,618,184,70,1560803783.791719
264,86,92,185,332,602,171,75,1560803783.802825
278,86,80,172,342,624,184,79,1560803783.833508
263,72,85,166,356,672,239,73,1560803783.848598
272,77,83,169,342,676,227,74,1560803783.862935
255,81,81,167,340,606,220,71,1560803783.893897
242,73,81,201,372,629,237,71,1560803783.910173
280,78,92,217,382,641,242,84,1560803783.922876
273,86,88,238,386,514,171,84,1560803783.94607
267,83,94,228,396,510,160,82,1560803783.968526
309,85,91,214,356,685,219,92,1560803784.005806
324,101,97,183,338,674,254,109,1560803784.015251
284,98,95,165,370,640,247,103,1560803784.0294359
264,91,90,161,390,659,257,105,1560803784.050983
344,100,94,152,392,683,327,127,1560803784.065949
382,98,105,156,393,575,309,127,1560803784.0886538
380,88,109,189,384,518,270,110,1560803784.1185188
391,84,108,202,437,488,274,109,1560803784.12642
425,95,105,181,389,503,272,107,1560803784.148519
428,88,96,245,397,550,198,94,1560803784.1715438
412,88,85,238,407,497,188,96,1560803784.1864538
400,81,68,220,435,568,194,93,1560803784.208216
416,100,55,219,352,560,181,88,1560803784.231657
389,94,66,233,385,575,184,86,1560803784.246064
340,95,76,186,395,562,233,103,1560803784.2685132
286,91,76,198,390,591,225,101,1560803784.290946
289,94,78,196,340,569,223,104,1560803784.306157
285,84,85,200,390,635,254,108,1560803784.328615
276,78,91,220,371,615,270,108,1560803784.358747
261,69,83,201,353,551,219,80,1560803784.373636
281,76,85,189,330,547,206,71,1560803784.38853
274,73,93,182,374,590,228,72,1560803784.4120948
255,66,94,173,315,551,192,71,1560803784.426855
247,68,85,141,347,544,166,73,1560803784.448443
239,83,103,173,352,555,169,77,1560803784.479584
212,94,110,177,354,601,199,76,1560803784.493178
242,93,110,180,328,553,190,78,1560803784.509265
215,90,105,177,320,519,192,80,1560803784.5319948
242,95,108,178,269,510,205,82,1560803784.554464
325,87,98,160,269,617,239,82,1560803784.569342
340,85,97,167,329,567,222,85,1560803784.592103
312,88,98,172,314,539,201,79,1560803784.6068392
329,93,102,179,351,581,203,72,1560803784.629968
315,89,94,160,354,647,210,66,1560803784.652092
249,88,87,163,356,602,199,59,1560803784.666932
225,75,114,185,352,568,198,53,1560803784.689334
257,77,115,186,358,585,206,55,1560803784.710278
333,86,112,190,340,550,202,62,1560803784.727108
352,86,120,209,407,565,211,69,1560803784.749555
342,85,139,212,415,522,190,69,1560803784.770452
383,87,121,181,401,554,193,84,1560803784.786891
399,88,117,176,434,561,200,91,1560803784.810302
332,79,120,199,419,661,251,88,1560803784.83049
316,79,122,188,422,586,249,84,1560803784.847193
303,74,100,219,396,561,251,88,1560803784.8695009
285,73,91,230,402,521,256,76,1560803784.890419
284,70,89,226,368,521,271,92,1560803784.912868
303,62,91,202,376,443,249,93,1560803784.929507
292,66,82,205,340,445,234,92,1560803784.950397
327,73,88,208,341,500,232,92,1560803784.972827
325,81,92,206,296,525,248,90,1560803784.987825
289,83,89,210,313,518,229,65,1560803785.010282
268,84,86,222,316,477,206,62,1560803785.03285
330,86,101,222,260,473,197,81,1560803785.063555
337,82,95,181,271,454,190,77,1560803785.07024
371,73,90,203,403,422,149,85,1560803785.092815
399,63,105,213,416,385,141,91,1560803785.123643
418,77,116,192,398,372,167,108,1560803785.1378
461,92,110,186,415,357,173,111,1560803785.169267
445,94,115,192,437,339,177,117,1560803785.171139
404,96,115,200,338,414,180,114,1560803785.190248
372,100,110,184,289,488,235,122,1560803785.212871
391,106,96,180,294,549,261,113,1560803785.227936
361,96,93,200,319,560,264,106,1560803785.2518811
357,106,97,235,314,563,270,108,1560803785.275068
405,107,104,206,295,538,276,116,1560803785.287831
410,112,102,218,304,530,239,104,1560803785.310351
375,96,107,225,318,487,188,96,1560803785.341024
299,88,114,213,280,501,178,86,1560803785.347637
294,80,112,179,230,464,165,78,1560803785.369548
279,77,104,173,255,468,169,70,1560803785.393586
358,90,110,179,319,479,211,110,1560803785.407082
371,94,115,182,315,482,217,118,1560803785.431133
404,94,105,173,332,455,215,120,1560803785.453623
396,94,100,162,324,459,212,120,1560803785.468679
366,98,103,178,332,475,213,120,1560803785.490211
283,77,98,168,296,412,155,85,1560803785.512675
311,80,86,157,279,365,138,79,1560803785.527693
293,80,82,171,262,371,149,74,1560803785.550262
317,75,82,170,299,431,164,68,1560803785.572621
302,67,82,166,291,367,152,56,1560803785.588025
309,69,74,163,263,351,146,50,1560803785.625739
257,60,74,168,302,361,157,40,1560803785.6344788
224,60,75,148,300,353,149,39,1560803785.647734
196,62,71,143,283,255,129,39,1560803785.670356
182,67,61,123,257,266,114,42,1560803785.692734
256,68,57,103,252,245,106,53,1560803785.707931
272,66,51,119,211,246,97,56,1560803785.730393
322,65,54,146,207,212,143,66,1560803785.752904
349,68,54,144,186,200,161,70,1560803785.775326
357,58,52,147,182,170,178,69,1560803785.7904
302,52,50,147,187,157,182,60,1560803785.812813
289,52,49,131,183,108,177,61,1560803785.852252
241,50,51,103,171,87,135,49,1560803785.854133
183,50,51,98,201,69,119,40,1560803785.872611
162,48,51,100,223,57,93,39,1560803785.894915
140,49,54,110,239,75,121,40,1560803785.909588
107,49,54,116,245,67,121,32,1560803785.940242
68,55,56,114,249,78,116,40,1560803785.9548721
90,61,59,113,395,87,118,53,1560803785.971952
100,67,63,109,407,88,122,55,1560803785.9923902
103,68,70,114,467,95,93,67,1560803786.015305
104,67,73,113,484,96,88,73,1560803786.0302029
105,65,71,112,495,90,87,67,1560803786.054391
82,53,69,118,404,87,71,60,1560803786.075488
136,46,68,122,431,95,61,79,1560803786.097696
157,62,60,124,356,73,56,69,1560803786.1209
162,67,67,144,346,80,55,64,1560803786.135406
192,70,66,143,358,84,49,70,1560803786.150422
211,72,65,147,452,85,48,69,1560803786.17292
192,76,68,144,416,86,45,59,1560803786.203342
186,63,75,134,431,93,39,61,1560803786.212013
196,60,64,107,452,89,38,71,1560803786.232879
175,56,59,112,433,82,33,70,1560803786.255343
157,53,59,106,340,118,37,87,1560803786.270252
161,57,57,106,364,129,41,85,1560803786.29286
165,62,52,105,390,131,42,111,1560803786.315316
154,68,59,97,354,132,42,118,1560803786.330453
148,69,64,88,364,135,44,126,1560803786.352765
172,72,65,82,359,116,40,121,1560803786.37538
204,68,64,79,340,97,36,128,1560803786.39775
192,64,62,74,342,98,34,107,1560803786.41277
202,60,51,81,379,95,31,112,1560803786.435312
206,61,43,85,396,105,31,108,1560803786.450391
185,59,49,93,404,101,30,106,1560803786.472839
170,57,46,96,434,109,28,117,1560803786.495203
224,69,44,96,427,102,30,150,1560803786.512043
221,68,44,92,429,105,33,142,1560803786.532734
226,66,44,85,468,110,38,138,1560803786.5635211
250,64,38,73,441,101,42,154,1560803786.5703368
226,66,42,80,505,105,43,139,1560803786.592781
185,58,45,79,487,108,44,108,1560803786.615505
220,66,52,82,503,108,44,108,1560803786.630404
240,79,58,88,503,89,40,127,1560803786.652771
222,79,55,88,514,87,38,133,1560803786.675339
229,78,55,78,547,81,36,147,1560803786.697767
232,84,52,86,555,83,39,156,1560803786.71446
196,80,46,85,525,81,38,156,1560803786.735393
193,72,42,82,507,82,36,142,1560803786.750211
214,88,47,87,515,87,40,141,1560803786.78051
203,87,45,88,396,83,43,128,1560803786.802884
199,79,45,77,440,87,39,114,1560803786.817479
221,77,44,76,456,96,41,145,1560803786.841
197,72,41,79,466,99,42,148,1560803786.855362
169,51,44,76,456,96,35,136,1560803786.877932
174,56,43,80,476,102,38,144,1560803786.901515
183,67,47,85,459,97,35,145,1560803786.916923
173,70,52,106,531,113,39,142,1560803786.946085
185,79,53,106,498,114,40,189,1560803786.952688
183,81,50,104,490,115,42,188,1560803786.975477
190,81,50,100,482,116,40,184,1560803787.013231
203,74,45,98,449,114,41,184,1560803787.022637
185,74,40,73,382,102,36,169,1560803787.0440311
167,68,44,66,399,96,33,128,1560803787.058523
196,75,41,64,414,97,34,128,1560803787.072952
216,79,41,72,411,93,34,139,1560803787.0953882
185,76,47,70,420,96,32,139,1560803787.126077
186,74,51,74,413,93,33,128,1560803787.132745
213,75,46,76,449,97,34,128,1560803787.1635551
253,84,52,76,443,97,32,114,1560803787.178618
232,88,58,71,455,98,33,97,1560803787.192825
236,90,54,70,482,113,38,96,1560803787.215316
243,91,53,77,462,110,36,105,1560803787.239238
238,91,53,87,438,106,39,112,1560803787.252744
204,91,50,94,425,107,43,127,1560803787.283494
214,91,46,94,448,100,45,128,1560803787.305909
213,92,50,95,463,86,44,132,1560803787.312665
216,94,47,93,468,79,45,138,1560803787.335434
238,95,46,87,446,83,42,118,1560803787.358562
251,104,43,84,486,77,37,124,1560803787.372899
250,100,43,89,475,79,33,124,1560803787.395549
262,100,46,104,545,81,31,142,1560803787.418525
256,107,49,102,540,79,33,131,1560803787.432852
271,134,48,99,617,81,36,137,1560803787.463489
245,131,55,104,644,90,38,133,1560803787.478866
246,127,53,100,616,93,39,135,1560803787.492782
245,129,50,84,578,94,40,113,1560803787.5155132
269,140,61,95,629,97,44,117,1560803787.546535
217,115,63,96,550,102,42,113,1560803787.560951
197,98,59,92,494,121,42,100,1560803787.5754108
181,106,59,89,505,141,46,93,1560803787.597766
233,109,57,89,451,168,53,113,1560803787.612845
200,87,45,75,372,171,49,121,1560803787.635341
217,87,50,80,449,186,51,124,1560803787.658582
228,91,51,79,484,189,53,122,1560803787.68086
248,100,52,89,583,189,51,140,1560803787.69536
197,110,54,92,573,164,44,121,1560803787.718643
201,109,54,109,577,174,42,112,1560803787.741099
181,108,53,113,625,194,43,102,1560803787.75547
170,109,56,123,737,200,39,103,1560803787.7784688
181,99,56,113,658,188,35,85,1560803787.800937
196,109,56,135,752,203,35,94,1560803787.823291
183,110,60,125,788,202,35,86,1560803787.838477
189,108,58,118,755,171,34,97,1560803787.861388
197,105,57,106,652,152,34,95,1560803787.875284
163,102,60,115,670,172,36,96,1560803787.898596
147,68,56,91,623,160,34,95,1560803787.9210222
149,64,56,113,737,165,34,102,1560803787.935409
146,74,60,116,730,183,36,100,1560803787.958551
136,78,66,131,825,218,39,97,1560803787.981075
139,71,63,126,846,225,40,93,1560803787.995437
114,72,68,130,841,253,49,81,1560803788.018455
114,72,74,119,840,394,53,96,1560803788.041085
110,71,75,118,838,394,56,100,1560803788.055603
103,68,76,112,858,440,57,103,1560803788.078309
88,69,81,114,866,450,57,100,1560803788.1010618
88,70,80,106,884,468,52,105,1560803788.11532
137,70,76,106,887,410,55,151,1560803788.138486
132,60,76,108,904,402,51,148,1560803788.1685472
140,56,71,113,895,350,53,148,1560803788.183573
154,55,67,122,893,341,55,152,1560803788.198597
158,53,72,145,976,305,58,156,1560803788.221049
116,48,72,138,879,243,53,111,1560803788.235316
120,49,70,146,886,309,56,108,1560803788.258636
104,49,68,137,810,297,51,106,1560803788.28825
79,51,69,138,811,285,52,109,1560803788.296988
99,62,72,121,712,318,48,115,1560803788.318501
122,62,67,122,719,317,47,111,1560803788.341016
132,67,76,116,759,277,51,111,1560803788.3554368
140,70,78,121,808,276,56,132,1560803788.378919
148,67,80,112,769,271,58,158,1560803788.408482
152,57,75,110,743,246,58,154,1560803788.415388
165,60,77,113,796,268,62,154,1560803788.438497
168,61,67,118,718,261,56,153,1560803788.460927
165,58,64,134,661,270,55,137,1560803788.484269
165,64,68,155,745,265,48,98,1560803788.506081
150,61,73,153,734,250,54,104,1560803788.521498
118,65,71,153,664,225,49,112,1560803788.535299
104,63,71,151,740,206,46,109,1560803788.558546
107,64,73,139,753,192,42,104,1560803788.5814369
107,58,64,112,673,190,44,111,1560803788.595398
141,66,53,120,686,180,40,102,1560803788.619402
151,71,55,122,696,161,42,99,1560803788.6410642
166,70,53,110,590,164,44,99,1560803788.655339
166,68,46,98,494,142,45,105,1560803788.678541
177,76,44,99,514,138,41,99,1560803788.701011
157,78,44,105,564,172,42,92,1560803788.7236118
147,71,45,108,530,160,38,68,1560803788.738986
133,74,44,107,529,154,37,69,1560803788.761056
139,74,45,108,534,158,36,63,1560803788.783998
122,68,55,112,564,170,43,95,1560803788.798577
118,57,56,93,473,119,42,102,1560803788.821068
156,58,56,84,490,122,45,108,1560803788.84412
174,74,63,86,496,115,46,113,1560803788.859247
202,78,64,88,511,110,49,120,1560803788.881056
198,80,72,93,488,90,43,94,1560803788.903554
197,82,71,91,448,81,36,103,1560803788.9178278
187,78,70,99,396,87,39,99,1560803788.941037
170,63,80,125,403,91,41,94,1560803788.963684
133,55,81,126,459,86,41,90,1560803788.986528
154,48,71,125,398,81,42,107,1560803789.00109
157,47,77,135,396,82,43,89,1560803789.023712
170,47,80,150,443,73,41,90,1560803789.037846
192,35,67,138,447,74,39,94,1560803789.060715
198,35,71,134,372,77,35,105,1560803789.083338
187,35,84,143,443,79,32,88,1560803789.097875
180,38,89,134,490,82,34,92,1560803789.121054
153,43,84,110,488,84,32,88,1560803789.143483
137,57,84,103,442,77,34,83,1560803789.1660311
128,60,78,110,434,87,38,80,1560803789.180904
124,62,81,100,394,89,39,82,1560803789.211116
178,59,80,107,486,100,38,86,1560803789.226037
246,58,79,113,454,101,41,97,1560803789.240971
276,60,85,144,476,114,39,104,1560803789.263635
293,64,106,152,492,116,43,94,1560803789.277822
312,66,97,151,492,118,47,94,1560803789.30157
312,67,90,161,386,118,48,90,1560803789.324152
265,66,96,162,390,116,48,79,1560803789.337896
246,56,95,156,366,108,48,70,1560803789.361052
227,57,87,164,370,96,42,62,1560803789.383661
203,52,79,160,468,89,37,65,1560803789.397875
161,50,79,152,445,76,36,67,1560803789.4209712
162,57,81,175,442,83,38,72,1560803789.44482
139,54,75,161,494,84,40,71,1560803789.457947
124,51,61,145,506,101,40,69,1560803789.480833
128,51,64,149,379,103,44,68,1560803789.503561
143,59,101,185,357,104,45,90,1560803789.526026
150,52,101,172,388,98,40,86,1560803789.548591
140,49,103,175,354,98,38,88,1560803789.564108
167,46,103,176,298,78,36,88,1560803789.577925
163,47,104,185,302,80,34,85,1560803789.601983
170,37,69,149,338,76,31,60,1560803789.62276
156,36,58,130,311,82,32,62,1560803789.654597
166,41,55,131,285,76,32,58,1560803789.662001
142,38,54,140,309,83,39,67,1560803789.685098
140,42,62,137,317,81,39,67,1560803789.705475
113,41,62,136,308,86,40,62,1560803789.721893
121,41,61,139,301,79,43,61,1560803789.7507858
139,54,66,136,329,97,48,92,1560803789.765423
150,59,72,135,357,93,45,90,1560803789.806645
154,60,80,149,400,98,43,91,1560803789.808384
167,60,81,144,382,92,43,98,1560803789.825569
175,60,83,145,376,90,43,101,1560803789.842054
152,48,87,139,382,72,38,73,1560803789.864662
140,47,87,131,359,71,37,66,1560803789.887397
138,39,70,101,292,57,34,68,1560803789.90254
161,44,69,104,291,60,35,71,1560803789.938683
172,41,69,100,323,66,35,78,1560803789.945267
168,44,63,105,313,65,35,79,1560803789.962156
170,43,62,117,307,65,36,86,1560803789.990412
168,47,66,111,302,68,38,90,1560803790.005372
159,53,64,108,299,70,38,82,1560803790.029485
122,54,62,122,286,65,34,68,1560803790.0428288
120,52,71,146,248,67,34,63,1560803790.065212
134,53,65,138,217,69,34,60,1560803790.082389
144,50,61,140,237,68,33,63,1560803790.102869
137,46,65,142,242,62,31,60,1560803790.125319
144,50,77,136,242,58,29,61,1560803790.1477711
145,51,74,112,272,58,28,68,1560803790.162625
127,50,77,107,277,56,28,64,1560803790.186136
113,52,80,101,267,52,26,48,1560803790.201035
93,49,76,96,263,53,25,48,1560803790.222085
80,47,86,106,310,64,27,46,1560803790.2688699
79,44,79,95,282,55,26,38,1560803790.2752821
82,46,73,90,270,53,27,39,1560803790.282095
89,46,69,91,283,54,26,40,1560803790.304585
79,45,77,103,290,63,28,39,1560803790.321165
78,43,53,94,203,67,26,50,1560803790.342702
75,46,56,96,222,75,28,49,1560803790.372779
71,43,56,96,221,78,27,48,1560803790.387723
57,45,57,95,185,78,26,47,1560803790.4103382
45,44,46,80,221,92,29,46,1560803790.4252481
42,42,43,67,230,98,29,36,1560803790.449556
53,37,37,60,205,99,26,32,1560803790.462822
59,37,37,56,221,114,28,27,1560803790.492941
57,30,39,62,244,125,29,26,1560803790.502027
59,28,40,70,221,137,26,27,1560803790.522969
76,42,38,69,226,137,34,28,1560803790.547134
85,45,39,71,237,138,36,31,1560803790.567978
100,53,44,76,233,135,35,44,1560803790.582916
100,53,42,78,233,141,38,45,1560803790.6128669
98,53,41,76,247,136,42,46,1560803790.629555
89,44,39,81,281,131,39,44,1560803790.642852
85,51,40,88,308,143,41,46,1560803790.6653302
84,49,34,90,300,138,41,41,1560803790.687835
86,49,32,89,296,126,40,39,1560803790.7029731
87,47,31,91,308,114,35,38,1560803790.725315
84,48,32,88,270,111,35,37,1560803790.747961
102,55,31,90,229,111,29,36,1560803790.770468
90,57,33,105,273,106,33,45,1560803790.7852552
89,58,35,105,268,110,39,50,1560803790.831898
90,60,36,104,271,102,38,52,1560803790.833833
95,60,36,112,295,123,38,52,1560803790.8458712
90,50,39,104,320,121,41,52,1560803790.869503
95,46,38,95,299,130,47,47,1560803790.882879
115,45,42,94,310,137,46,50,1560803790.905342
121,44,42,104,290,146,47,48,1560803790.927992
129,45,43,115,282,127,49,52,1560803790.950375
122,53,39,118,249,116,48,51,1560803790.965365
131,57,37,123,256,114,49,44,1560803790.9877741
121,59,31,131,245,100,57,51,1560803791.004648
116,57,29,152,241,100,55,56,1560803791.026751
108,59,29,137,245,107,54,53,1560803791.047848
104,49,29,138,258,109,55,53,1560803791.070339
88,42,29,145,363,105,56,54,1560803791.093588
90,44,34,141,366,114,46,50,1560803791.124161
87,44,33,106,370,124,100,48,1560803791.126011
92,41,32,123,365,121,104,50,1560803791.14532
82,42,32,134,371,118,105,48,1560803791.167965
76,41,32,133,264,132,102,60,1560803791.190376
66,39,27,140,257,129,121,60,1560803791.205313
67,37,27,144,288,112,90,61,1560803791.2279391
71,43,27,129,271,114,91,71,1560803791.2428448
79,41,29,121,264,108,102,76,1560803791.265372
84,42,35,118,261,114,113,68,1560803791.295614
85,42,42,133,332,138,107,66,1560803791.304312
88,43,43,132,293,167,105,80,1560803791.3253222
100,49,44,138,306,163,107,75,1560803791.348095
98,48,43,136,306,168,111,76,1560803791.362946
95,49,39,127,329,167,102,78,1560803791.3853369
92,47,35,107,325,148,93,78,1560803791.4164212
87,47,38,112,343,128,97,68,1560803791.432119
57,35,37,106,407,151,89,71,1560803791.44698
69,46,40,108,410,172,95,68,1560803791.467983
68,47,41,105,387,160,96,65,1560803791.4828901
70,46,41,95,331,162,90,66,1560803791.5053868
71,46,39,102,315,188,83,61,1560803791.527941
68,47,40,105,242,207,107,57,1560803791.5503528
49,36,36,103,264,196,92,53,1560803791.5736349
40,34,32,120,277,193,91,56,1560803791.5879948
56,34,31,121,279,192,90,50,1560803791.610266
70,37,31,114,296,163,92,46,1560803791.625375
71,33,29,112,282,118,68,48,1560803791.647866
71,33,30,113,259,119,58,54,1560803791.6705241
73,31,31,107,296,132,49,54,1560803791.685294
60,34,34,105,303,130,48,52,1560803791.707884
43,33,41,100,320,122,43,53,1560803791.730427
37,34,44,100,327,127,36,46,1560803791.745336
37,34,43,106,339,120,36,40,1560803791.768089
40,34,43,93,295,109,37,34,1560803791.798551
54,36,41,92,283,107,37,41,1560803791.813416
53,33,35,100,272,109,36,39,1560803791.827762
54,33,35,101,283,114,33,39,1560803791.8502061
51,31,43,104,279,120,33,37,1560803791.873261
47,32,44,105,279,117,34,37,1560803791.8880188
30,26,45,108,300,113,34,27,1560803791.910355
29,26,45,99,282,115,35,25,1560803791.9334981
30,35,63,102,268,105,38,25,1560803791.9479618
31,42,84,116,273,88,34,25,1560803791.970359
29,41,84,117,273,87,32,26,1560803791.986817
27,42,85,119,250,85,33,25,1560803792.007863
28,46,85,120,242,84,35,27,1560803792.030369
26,42,89,115,220,77,31,25,1560803792.046889
31,37,76,108,196,83,36,25,1560803792.06797
35,38,77,111,206,85,36,26,1560803792.090325
35,36,76,109,209,90,32,26,1560803792.113548
36,33,75,122,238,82,32,25,1560803792.1279562
36,30,54,131,356,89,33,25,1560803792.1503189
32,30,45,119,356,83,32,25,1560803792.165323
27,30,50,119,367,91,31,24,1560803792.1879652
28,31,56,118,375,89,35,25,1560803792.2275288
25,29,57,105,357,91,34,28,1560803792.2293599
26,31,61,100,243,95,36,29,1560803792.247966
26,30,58,100,241,103,33,28,1560803792.278348
27,31,60,108,231,108,33,28,1560803792.28694
28,32,55,106,249,107,30,27,1560803792.316145
31,32,62,110,237,111,27,24,1560803792.346577
32,29,58,111,285,103,25,23,1560803792.3535938
32,28,59,109,281,103,26,22,1560803792.376015
31,26,54,120,360,108,29,22,1560803792.390392
28,24,54,129,381,108,30,22,1560803792.406869
26,24,50,132,381,103,30,21,1560803792.428
28,29,55,135,364,102,30,21,1560803792.458592
28,29,52,130,367,94,30,22,1560803792.473427
32,30,49,106,306,80,29,23,1560803792.49613
35,33,59,89,272,83,27,21,1560803792.510391
36,31,58,81,296,93,27,22,1560803792.533688
34,33,60,64,281,102,27,22,1560803792.547974
35,38,80,74,291,112,27,21,1560803792.579011
34,37,85,75,319,102,26,22,1560803792.61747
31,37,80,75,305,100,27,22,1560803792.61937
29,37,79,79,293,103,32,22,1560803792.630381
31,35,77,90,291,99,32,21,1560803792.661077
31,29,59,93,325,95,33,23,1560803792.667839
29,29,51,91,272,102,33,23,1560803792.692183
31,28,50,97,287,130,35,25,1560803792.713542
31,29,49,96,321,127,31,23,1560803792.727774
26,30,51,97,328,124,29,25,1560803792.750382
26,34,54,87,290,122,31,25,1560803792.7735949
29,35,69,93,295,119,33,26,1560803792.787997
26,35,68,90,288,90,30,24,1560803792.810459
29,35,66,84,235,76,30,25,1560803792.833508
29,31,65,78,241,120,31,25,1560803792.84796
31,32,61,83,248,117,29,26,1560803792.878577
30,32,53,75,237,117,25,25,1560803792.893625
32,30,52,79,234,117,25,25,1560803792.9158711
29,30,53,82,279,130,26,24,1560803792.930968
29,31,48,86,335,94,25,24,1560803792.953477
29,30,48,88,354,98,24,24,1560803792.967968
28,33,45,93,350,104,24,24,1560803792.991977
36,35,45,89,345,109,25,24,1560803793.01438
37,37,47,90,345,93,25,25,1560803793.0294561
38,35,45,93,310,93,26,25,1560803793.059006
37,33,45,93,278,94,25,23,1560803793.074267
37,28,37,94,276,85,27,21,1560803793.0879
30,25,38,96,276,76,25,21,1560803793.111184
28,23,37,100,270,78,24,21,1560803793.1340811
24,24,40,91,235,85,26,21,1560803793.1479142
23,26,39,85,250,106,28,23,1560803793.170934
22,29,40,78,258,112,30,25,1560803793.1936119
23,30,40,74,255,112,31,24,1560803793.2161438
25,33,46,69,210,115,30,24,1560803793.2310839
27,34,50,77,263,109,29,22,1560803793.261131
29,36,68,80,243,94,30,22,1560803793.2680821
30,36,69,90,265,90,29,21,1560803793.291252
28,37,69,92,296,86,29,23,1560803793.313589
30,38,68,95,306,84,30,23,1560803793.336094
27,37,66,86,267,87,30,25,1560803793.351184
25,32,49,86,283,76,25,25,1560803793.374194
26,32,51,81,251,69,23,24,1560803793.3879108
25,29,54,103,281,74,23,23,1560803793.411631
24,25,51,100,281,81,23,24,1560803793.448602
26,33,67,114,285,78,24,22,1560803793.456156
26,37,70,111,270,78,27,24,1560803793.470967
25,37,66,114,304,83,28,24,1560803793.494777
25,37,65,94,250,88,29,24,1560803793.516027
22,37,64,99,254,81,30,23,1560803793.531001
22,32,48,87,266,76,31,22,1560803793.553363
23,32,52,97,272,90,30,22,1560803793.5761359
23,31,56,93,255,93,29,22,1560803793.5911
23,31,57,92,261,87,28,20,1560803793.613305
23,31,57,91,246,92,25,21,1560803793.643655
23,28,56,94,215,97,24,24,1560803793.650925
21,26,49,99,242,93,27,25,1560803793.673575
23,27,47,102,232,90,31,25,1560803793.696174
24,27,50,100,231,94,32,27,1560803793.71224
25,29,48,97,236,88,33,28,1560803793.733569
25,30,49,93,265,81,30,25,1560803793.756093
26,28,53,90,235,82,29,24,1560803793.778588
24,29,55,89,309,85,26,23,1560803793.793495
23,28,51,97,308,79,25,23,1560803793.823858
23,26,51,94,315,76,24,21,1560803793.838521
27,30,62,116,342,93,30,23,1560803793.854753
26,31,67,139,366,113,31,22,1560803793.875409
29,32,65,145,309,116,32,24,1560803793.898298
29,32,65,144,322,117,32,23,1560803793.920591
28,32,66,148,352,120,31,23,1560803793.943482
24,29,59,134,322,120,30,22,1560803793.958834
27,30,51,106,315,96,28,24,1560803793.9735
27,33,56,95,355,89,28,27,1560803794.003568
27,32,54,90,372,89,29,26,1560803794.01036
30,32,55,80,355,91,29,27,1560803794.033421
30,34,54,85,421,90,27,26,1560803794.056108
29,33,62,83,419,97,26,24,1560803794.078588
29,29,57,82,374,100,24,21,1560803794.093519
30,30,58,91,365,100,24,22,1560803794.1160321
29,31,56,97,382,99,28,24,1560803794.138541
31,28,54,88,299,101,27,24,1560803794.1535661
31,30,53,102,284,105,32,25,1560803794.1760561
31,28,56,113,303,107,33,24,1560803794.1903288
32,29,55,107,268,105,32,26,1560803794.213501
31,28,56,107,252,121,32,23,1560803794.23611
33,31,56,104,279,118,33,24,1560803794.265925
32,28,46,94,284,109,29,21,1560803794.2735631
31,27,45,83,293,100,28,22,1560803794.3032598
29,29,43,80,300,101,30,22,1560803794.312015
30,32,49,96,294,81,30,23,1560803794.333462
26,29,52,95,264,70,31,24,1560803794.3566759
26,30,50,103,274,72,29,26,1560803794.37858
25,30,48,106,260,77,30,24,1560803794.40201
26,28,50,111,256,76,29,26,1560803794.415876
25,24,45,93,225,76,26,27,1560803794.4391391
28,28,54,95,217,74,25,27,1560803794.453177
28,28,53,76,240,78,26,26,1560803794.476286
30,28,59,70,228,86,25,28,1560803794.4984472
31,29,57,100,265,96,28,27,1560803794.513389
34,32,59,103,268,95,28,25,1560803794.535965
33,30,50,113,288,104,27,23,1560803794.558582
34,33,56,124,268,113,30,25,1560803794.5811
33,35,50,126,271,114,29,24,1560803794.596124
32,34,52,98,227,106,25,25,1560803794.618701
28,30,49,101,224,107,26,26,1560803794.633531
27,30,44,95,195,114,29,27,1560803794.656518
26,34,53,116,226,108,34,26,1560803794.686114
25,33,53,121,230,99,35,25,1560803794.693613
24,30,52,119,243,120,36,23,1560803794.716127
29,30,55,116,240,124,36,24,1560803794.737665
28,30,55,112,260,111,34,25,1560803794.776519
30,25,39,79,246,104,29,25,1560803794.791177
29,28,41,71,235,103,28,27,1560803794.797946
31,30,40,75,229,81,27,27,1560803794.8145359
