1562034623.18634,42,36,57,138,59,28,24,21
1562034623.209361,37,34,52,127,55,25,26,21
1562034623.231984,34,35,58,145,50,23,25,21
1562034623.246049,35,39,67,165,41,24,24,22
1562034623.284374,38,39,71,169,42,25,24,23
1562034623.291976,41,37,68,145,40,28,23,23
1562034623.314306,41,37,67,162,42,33,23,25
1562034623.329392,42,41,72,147,41,36,25,26
1562034623.351855,43,38,66,127,37,38,25,25
1562034623.374382,46,36,56,122,37,38,26,26
1562034623.389294,43,38,63,125,40,38,26,24
1562034623.411829,45,40,69,119,43,35,25,24
1562034623.426249,46,33,63,145,47,37,25,21
1562034623.44944,44,35,66,140,48,36,25,22
1562034623.47193,39,33,69,149,50,37,25,24
1562034623.494385,38,31,66,169,52,39,25,26
1562034623.509431,33,32,69,155,47,41,24,24
1562034623.531803,30,34,66,137,46,39,24,27
1562034623.546077,30,33,64,152,48,40,24,27
1562034623.569196,31,36,72,147,48,45,24,26
1562034623.591881,33,38,71,148,41,41,26,24
1562034623.606137,35,36,65,147,41,40,27,25
1562034623.629332,36,34,71,165,37,40,26,24
1562034623.659446,34,39,74,164,34,37,25,25
1562034623.666234,35,38,70,165,29,32,27,26
1562034623.689363,39,35,68,156,33,33,25,26
1562034623.711916,40,36,75,168,34,33,24,24
1562034623.741827,40,37,74,145,36,31,24,23
1562034623.749312,41,31,75,149,38,33,24,22
1562034623.771979,40,30,71,153,38,31,22,19
1562034623.794554,37,31,73,143,35,29,22,21
1562034623.809774,35,31,67,131,46,30,22,20
1562034623.833015,34,36,66,136,45,33,23,21
1562034623.855468,35,38,63,126,46,42,23,21
1562034623.870505,35,39,59,130,47,41,24,22
1562034623.900523,35,38,57,122,49,43,23,20
1562034623.915325,37,40,53,122,45,45,24,22
1562034623.930528,38,36,50,122,46,43,24,22
1562034623.952999,37,35,56,128,47,36,22,23
1562034623.975608,36,36,56,114,52,34,24,21
1562034623.990433,33,37,64,160,55,38,24,21
1562034624.012804,30,33,66,160,49,35,24,20
1562034624.035434,28,32,72,158,49,39,25,19
1562034624.05008,29,30,65,160,46,42,24,18
1562034624.077917,33,27,65,159,40,46,22,19
1562034624.095025,37,30,60,111,38,42,21,20
1562034624.116087,40,30,61,114,37,42,22,19
1562034624.138513,40,34,62,110,38,41,23,21
1562034624.155424,42,34,63,106,39,36,24,20
1562034624.176044,40,34,63,120,39,41,27,19
1562034624.206202,36,30,63,117,37,41,26,20
1562034624.215381,35,31,66,120,37,43,26,21
1562034624.236135,35,28,58,119,36,39,25,21
1562034624.26617,31,26,61,121,35,42,23,21
1562034624.275542,31,29,67,122,37,40,21,23
1562034624.297906,33,32,70,121,41,39,23,22
1562034624.326197,33,35,64,122,43,37,20,21
1562034624.335257,35,33,70,120,44,38,21,22
1562034624.356165,38,34,67,112,42,35,23,22
1562034624.386941,38,32,61,96,41,27,22,21
1562034624.39362,38,32,55,98,38,29,24,22
1562034624.41631,38,31,55,107,40,28,25,21
1562034624.438503,36,37,47,108,38,28,25,20
1562034624.453697,32,38,54,113,44,30,26,21
1562034624.476207,33,41,55,120,44,32,27,22
1562034624.498683,31,40,58,124,44,32,23,22
1562034624.513675,32,37,60,109,40,33,22,20
1562034624.536155,35,32,65,127,45,32,23,19
1562034624.558795,37,32,57,122,41,35,22,19
1562034624.573742,36,30,61,116,40,35,22,18
1562034624.596209,37,28,57,116,39,32,24,19
1562034624.618711,36,31,58,128,45,33,25,20
1562034624.633738,35,31,53,111,42,38,24,22
1562034624.656323,34,32,55,107,42,38,24,24
1562034624.678786,32,33,49,113,42,37,24,24
1562034624.693712,33,35,53,120,43,37,24,23
1562034624.716263,32,34,55,107,38,41,24,24
1562034624.73869,33,34,52,128,38,40,27,22
1562034624.761254,31,33,54,134,38,38,26,19
1562034624.77621,29,34,56,129,37,44,25,19
1562034624.798625,27,33,56,118,39,44,25,21
1562034624.821548,31,33,52,124,39,41,25,22
1562034624.836181,33,35,55,123,39,41,22,21
1562034624.858619,34,33,66,125,38,41,23,22
1562034624.873647,37,30,69,130,39,37,24,22
1562034624.896262,40,32,67,130,36,43,23,23
1562034624.918669,39,31,67,130,40,45,23,22
1562034624.941232,41,30,75,108,41,45,25,23
1562034624.956205,38,32,64,94,41,45,22,23
1562034624.978696,36,33,62,101,42,46,24,24
1562034624.993581,34,31,66,114,45,42,25,23
1562034625.01629,33,32,72,112,42,43,25,24
1562034625.038578,28,33,64,114,40,45,22,24
1562034625.053611,30,34,63,122,45,44,23,23
1562034625.077934,30,31,64,108,44,41,23,22
1562034625.098504,27,32,66,102,46,38,23,21
1562034625.1139,27,32,63,108,46,42,23,20
1562034625.136232,30,34,70,110,46,40,26,20
1562034625.158594,31,34,69,108,42,39,25,21
1562034625.18944,37,35,67,114,42,44,22,19
1562034625.196251,38,34,63,121,39,47,24,21
1562034625.21869,38,32,62,129,38,46,25,20
1562034625.241145,37,29,54,138,41,45,22,22
1562034625.256362,36,28,52,134,40,48,23,21
1562034625.2869,33,31,52,133,39,47,26,21
1562034625.301263,40,32,56,135,43,60,25,21
1562034625.317668,40,37,54,140,47,61,24,21
1562034625.346865,40,37,62,129,43,63,25,19
1562034625.361203,38,39,66,139,41,59,29,19
1562034625.377993,36,36,67,152,43,60,28,20
1562034625.406836,31,37,76,143,43,55,29,19
1562034625.421204,29,34,76,123,41,53,28,19
1562034625.436383,28,34,73,128,48,54,27,19
1562034625.458717,28,33,70,119,51,59,24,19
1562034625.481337,31,33,68,111,49,59,25,19
1562034625.496279,29,33,60,105,47,53,23,20
1562034625.518674,31,31,64,106,45,50,23,24
1562034625.541389,33,32,57,95,38,47,23,24
1562034625.556318,34,32,58,94,37,44,23,24
1562034625.578629,34,33,64,111,40,41,24,25
1562034625.60115,36,31,61,119,37,38,26,25
1562034625.61621,36,32,57,120,37,37,25,22
1562034625.638714,34,32,57,121,38,42,26,22
1562034625.661316,38,34,59,131,39,41,27,23
1562034625.676114,38,34,68,109,38,39,25,24
1562034625.698612,37,35,66,106,43,37,24,23
1562034625.721189,36,35,64,109,45,45,26,25
1562034625.751959,37,34,65,110,46,41,25,25
1562034625.758724,33,33,60,102,47,46,25,25
1562034625.781196,30,33,54,103,50,50,25,26
1562034625.796159,30,34,54,118,48,53,24,25
1562034625.818567,29,35,56,116,49,48,23,24
1562034625.841178,30,35,59,120,48,48,22,24
1562034625.856193,30,34,61,128,44,47,21,26
1562034625.878593,33,34,62,127,41,56,19,23
1562034625.901174,31,31,64,120,38,61,20,24
1562034625.916339,34,31,63,120,35,60,20,23
1562034625.938643,37,34,62,125,43,64,25,23
1562034625.961285,39,35,63,120,44,61,25,21
1562034625.976246,37,36,65,122,42,52,28,21
1562034625.998711,38,38,62,114,43,48,28,21
1562034626.02118,37,37,61,136,46,51,28,21
1562034626.036046,35,36,65,131,38,51,24,22
1562034626.05888,38,36,60,129,37,56,26,23
1562034626.081304,38,36,46,126,40,61,25,26
1562034626.103744,39,37,46,122,46,68,26,26
1562034626.118715,37,37,44,112,49,69,26,26
1562034626.141146,39,38,42,123,52,71,26,26
1562034626.163656,34,42,55,124,54,66,25,24
1562034626.178756,32,41,59,129,58,63,24,22
1562034626.201183,29,38,56,131,54,54,23,20
1562034626.22379,27,41,58,123,51,51,20,21
1562034626.238663,24,41,61,146,49,42,23,21
1562034626.261463,26,38,53,143,48,52,22,23
1562034626.28359,32,37,52,136,41,55,21,22
1562034626.300252,35,38,56,137,38,54,21,22
1562034626.329212,39,36,57,140,33,56,25,24
1562034626.344317,40,31,50,104,31,58,24,23
1562034626.358685,42,28,48,118,31,53,23,21
1562034626.381081,40,32,49,118,31,48,25,22
1562034626.404175,38,33,44,112,32,46,24,23
1562034626.426814,37,35,46,108,33,43,24,22
1562034626.441296,36,36,49,134,49,59,24,23
1562034626.46442,32,36,51,127,50,59,26,23
1562034626.478676,32,34,49,138,51,61,25,27
1562034626.501067,36,33,58,143,52,63,26,26
1562034626.524552,35,30,57,161,54,63,24,24
1562034626.538676,34,30,66,149,44,47,24,25
1562034626.561136,33,33,66,144,44,45,20,26
1562034626.584291,29,33,66,134,45,50,20,22
1562034626.598654,25,38,64,134,42,48,23,24
1562034626.621169,27,39,62,108,41,49,22,25
1562034626.644354,30,39,51,132,39,50,24,25
1562034626.658602,32,38,51,132,41,52,24,25
1562034626.681211,35,39,54,134,47,62,24,25
1562034626.704387,37,33,52,139,48,64,22,23
1562034626.718587,39,31,55,169,47,63,23,22
1562034626.74114,37,31,54,142,48,65,23,22
1562034626.765029,39,32,52,157,46,64,24,23
1562034626.77859,41,33,53,160,41,46,23,20
1562034626.801089,40,32,54,157,42,50,23,23
1562034626.824305,37,34,62,118,41,52,23,23
1562034626.854284,38,38,63,118,38,48,25,22
1562034626.861054,40,37,64,93,37,49,25,21
1562034626.884904,35,34,61,91,34,48,26,22
1562034626.898657,34,35,59,86,34,43,26,19
1562034626.921082,35,34,50,90,36,43,25,19
1562034626.944428,33,34,48,89,39,44,22,22
1562034626.9587,31,36,46,107,41,39,22,22
1562034626.981105,35,37,58,105,41,39,22,22
1562034627.012058,37,36,57,101,39,35,21,24
1562034627.018612,40,36,57,114,39,39,23,25
1562034627.041146,40,34,59,142,43,44,25,21
1562034627.064393,42,34,60,148,46,43,26,25
1562034627.086784,39,34,47,161,45,48,27,25
1562034627.101046,40,34,48,172,48,54,29,26
1562034627.124193,40,36,45,165,50,78,93,87
1562034627.154405,41,38,44,226,59,80,101,97
1562034627.161249,56,36,46,233,59,88,141,136
1562034627.184337,65,35,49,250,67,101,171,165
1562034627.206952,77,37,48,258,87,102,181,172
1562034627.221159,84,37,64,265,122,90,172,158
1562034627.24455,88,41,67,228,162,115,185,155
1562034627.266058,81,46,70,231,205,115,162,125
1562034627.2804,80,46,71,212,212,106,135,88
1562034627.303508,76,52,74,195,210,105,122,75
1562034627.326468,85,52,65,210,203,123,129,126
1562034627.340309,87,56,74,193,178,119,151,143
1562034627.363954,94,67,79,221,159,241,222,156
1562034627.387734,110,113,89,232,183,311,289,184
1562034627.400984,753,124,409,270,214,327,296,199
1562034627.424407,1065,141,535,297,268,376,296,170
1562034627.446842,1086,141,536,735,273,415,329,192
1562034627.461195,1130,141,598,832,278,544,341,211
1562034627.484328,1192,114,619,887,318,520,301,225
1562034627.506826,981,102,511,890,311,541,311,262
1562034627.521084,647,83,380,878,272,511,315,297
1562034627.544398,617,77,376,573,269,494,280,296
1562034627.567179,534,69,269,405,255,294,229,289
1562034627.581263,377,62,211,250,191,293,219,265
1562034627.604235,215,59,87,211,167,238,232,222
1562034627.626906,151,51,72,199,147,235,216,173
1562034627.641169,122,57,77,162,135,198,188,131
1562034627.664563,109,53,69,156,114,175,163,104
1562034627.686696,85,49,67,152,78,131,147,88
1562034627.701804,65,50,65,135,67,121,78,68
1562034627.724421,64,50,67,137,61,90,69,58
1562034627.754561,57,53,65,160,56,87,65,53
1562034627.761452,66,56,61,163,62,94,66,45
1562034627.784188,85,89,64,204,104,186,147,115
1562034627.806726,120,96,77,241,149,277,260,154
1562034627.820387,132,103,86,292,165,373,302,177
1562034627.843943,179,111,83,307,219,404,324,243
1562034627.873542,196,119,92,366,277,430,353,317
1562034627.880773,201,110,142,401,332,428,351,379
1562034627.903854,193,106,157,394,383,408,306,389
1562034627.926792,207,101,167,378,405,348,352,434
1562034627.949332,174,93,169,372,394,323,341,419
1562034627.96401,460,82,170,322,359,295,320,380
1562034627.986722,781,68,132,253,299,256,295,313
1562034628.009368,903,62,110,232,209,211,268,286
1562034628.024368,969,62,88,199,147,168,139,200
1562034628.046866,976,56,80,178,101,145,117,159
1562034628.069352,875,58,66,137,81,113,87,122
1562034628.084256,604,56,53,131,88,117,83,88
1562034628.106917,396,54,58,151,76,100,66,73
1562034628.129447,157,56,56,181,74,100,146,86
1562034628.144431,93,50,61,223,71,104,153,84
1562034628.166749,88,46,62,231,73,106,159,87
1562034628.189401,75,50,78,292,66,189,177,92
1562034628.204373,94,52,75,396,156,236,279,108
1562034628.226796,114,52,76,395,165,256,296,134
1562034628.249383,135,62,106,421,224,409,344,172
1562034628.26435,165,84,132,454,291,437,360,208
1562034628.286925,173,93,132,479,314,431,389,329
1562034628.309552,167,98,132,421,302,418,361,365
1562034628.324303,169,97,134,425,302,429,360,360
1562034628.346913,158,94,113,379,270,306,322,352
1562034628.369268,134,77,82,346,200,279,314,349
1562034628.384377,132,67,74,256,159,232,285,247
1562034628.406923,143,62,78,238,114,214,240,195
1562034628.42929,130,61,77,212,103,163,183,177
1562034628.443626,128,62,78,203,85,153,167,161
1562034628.467015,122,59,78,181,75,159,148,119
1562034628.489855,112,55,76,192,67,169,112,91
1562034628.503713,89,49,74,140,67,175,100,56
1562034628.526894,79,46,70,132,73,187,81,48
1562034628.549445,64,40,63,119,63,160,78,42
1562034628.563752,54,46,60,126,63,125,61,42
1562034628.586878,54,46,61,99,66,115,55,39
1562034628.609401,56,43,48,102,66,104,69,37
1562034628.623124,63,46,46,103,56,79,90,41
1562034628.646831,65,52,43,118,56,78,86,40
1562034628.676919,67,50,47,157,59,89,87,36
1562034628.683629,68,49,43,161,56,81,85,37
1562034628.70691,69,55,42,163,49,70,75,40
1562034628.729566,63,59,40,173,48,65,53,37
1562034628.743794,70,54,41,164,54,81,56,43
1562034628.766917,70,55,34,171,56,78,53,42
1562034628.79687,65,54,35,166,56,80,55,42
1562034628.803657,63,50,40,181,58,82,54,39
1562034628.826832,61,42,43,181,66,96,48,40
1562034628.849368,48,42,42,185,63,86,40,32
1562034628.863778,44,41,40,139,55,76,41,33
1562034628.894396,48,46,44,149,54,71,41,38
1562034628.909387,58,51,41,130,50,70,41,41
1562034628.931958,61,54,40,111,54,73,35,40
1562034628.94779,69,53,42,161,56,68,42,41
1562034628.968491,73,52,47,173,60,68,43,45
1562034628.990563,73,52,45,186,66,79,41,42
1562034629.006791,65,49,44,193,70,80,45,39
1562034629.027709,68,44,43,200,58,62,44,38
1562034629.050585,59,56,42,164,55,61,43,39
1562034629.066972,55,55,42,156,62,79,46,33
1562034629.088273,57,52,43,137,55,69,47,36
1562034629.111243,56,48,45,132,53,66,43,36
1562034629.12787,51,50,47,129,59,69,44,41
1562034629.148672,54,39,46,123,59,72,35,40
1562034629.171092,50,40,43,129,49,52,41,39
1562034629.187728,55,47,40,120,52,54,43,38
1562034629.208553,55,50,42,121,54,60,43,37
1562034629.231162,54,49,41,122,51,59,44,35
1562034629.247764,56,50,41,124,52,63,46,33
1562034629.268665,57,49,43,120,51,63,36,32
1562034629.29126,51,42,42,143,51,72,39,29
1562034629.315316,52,42,41,132,50,72,40,28
1562034629.328665,53,47,43,128,53,74,40,24
1562034629.351149,50,44,45,124,51,71,37,23
1562034629.367869,52,47,43,115,56,83,39,25
1562034629.388514,57,49,44,88,52,74,32,31
1562034629.411195,54,54,41,117,48,68,41,33
1562034629.427985,48,50,36,114,43,62,38,33
1562034629.44869,51,51,35,114,50,77,41,34
1562034629.471343,51,49,34,117,43,66,39,32
1562034629.488196,45,46,35,138,44,64,37,27
1562034629.508684,49,40,36,117,47,65,25,32
1562034629.53132,51,39,36,128,53,79,37,35
1562034629.547943,50,36,36,122,47,60,37,34
1562034629.568732,45,38,37,141,50,59,42,35
1562034629.591256,46,40,33,118,48,61,44,33
1562034629.608002,42,42,32,115,49,67,45,29
1562034629.628582,41,39,33,108,44,52,37,26
1562034629.651204,42,41,31,112,47,58,39,26
1562034629.667942,43,43,30,108,45,57,39,25
1562034629.688655,49,43,33,121,45,59,39,30
1562034629.711271,54,43,37,130,46,71,43,31
1562034629.728036,56,44,36,139,45,73,42,29
1562034629.75641,54,44,38,134,41,69,39,32
1562034629.771346,53,39,41,147,42,69,45,32
1562034629.787974,50,44,45,157,44,71,43,28
1562034629.808675,51,40,42,152,39,54,41,23
1562034629.831182,50,39,41,165,37,48,42,31
1562034629.847929,52,43,43,175,37,56,48,30
1562034629.876316,52,42,41,157,39,60,40,31
1562034629.891154,55,36,37,140,45,57,40,32
1562034629.913618,49,39,37,153,44,56,39,33
1562034629.928666,48,44,39,154,48,60,40,27
1562034629.951423,45,42,35,146,48,57,32,24
1562034629.973819,44,43,34,139,48,55,31,23
1562034629.988571,40,43,33,144,40,55,45,29
1562034630.011267,41,42,35,142,40,56,45,27
1562034630.033688,43,36,35,114,37,53,44,28
1562034630.048548,43,35,37,116,38,53,45,29
1562034630.07114,42,36,36,116,37,52,44,29
1562034630.093604,40,41,37,116,38,49,49,30
1562034630.108664,44,43,37,106,39,47,50,32
1562034630.131275,42,45,38,103,35,49,49,33
1562034630.15372,43,43,36,121,38,52,50,30
1562034630.168626,55,42,42,160,50,57,99,74
1562034630.19133,95,36,48,218,65,86,198,98
1562034630.21616,101,32,49,239,91,89,221,139
1562034630.228721,119,36,49,286,96,93,257,148
1562034630.2529,127,38,59,347,111,90,306,189
1562034630.282534,150,41,62,401,115,101,368,208
1562034630.288643,150,43,58,401,122,102,347,251
1562034630.313222,153,43,59,406,107,101,338,235
1562034630.333735,141,42,61,384,107,101,316,241
1562034630.349213,138,41,60,351,96,101,277,217
1562034630.373099,120,40,55,299,88,88,172,189
1562034630.401912,95,39,57,254,70,69,125,112
1562034630.408681,83,39,57,230,65,67,109,104
1562034630.43129,79,34,58,258,62,60,97,75
1562034630.461939,73,33,50,255,64,63,75,53
1562034630.468612,51,35,49,227,63,61,62,46
1562034630.49124,46,33,48,230,62,52,52,33
1562034630.522073,47,32,45,227,65,60,51,31
1562034630.528656,46,37,39,180,64,60,49,28
1562034630.551169,45,37,43,137,55,53,36,26
1562034630.573643,43,36,44,136,57,60,40,27
1562034630.588557,43,39,43,142,60,72,36,27
1562034630.619726,41,40,42,182,56,64,36,26
1562034630.633615,41,38,46,191,56,65,38,26
1562034630.648587,41,39,41,179,57,73,40,26
1562034630.671297,45,35,41,188,54,72,44,23
1562034630.693709,43,35,38,177,48,61,45,24
1562034630.708622,44,36,43,136,52,62,45,22
1562034630.731228,44,34,46,148,53,64,43,24
1562034630.753658,45,34,47,147,51,59,44,24
1562034630.770447,40,37,46,128,51,55,34,26
1562034630.791046,40,34,48,154,51,55,45,27
1562034630.813676,43,33,45,166,49,61,47,28
1562034630.836225,42,34,40,146,42,61,48,27
1562034630.851223,41,37,43,147,45,78,47,27
1562034630.873834,39,36,49,142,42,78,46,25
1562034630.896677,42,40,49,130,40,82,52,24
1562034630.911064,42,39,50,109,40,82,49,24
1562034630.933704,44,38,54,117,45,81,48,22
1562034630.956164,47,34,53,151,45,60,49,22
1562034630.971289,48,34,47,152,50,62,55,22
1562034630.993734,45,30,45,149,57,61,41,25
1562034631.016222,49,32,42,178,59,60,42,26
1562034631.031235,49,34,36,167,60,63,41,26
1562034631.053667,43,38,34,148,64,70,39,27
1562034631.076217,44,37,33,149,66,77,33,27
1562034631.091184,42,39,32,152,63,74,37,23
1562034631.113595,36,38,32,140,61,70,44,23
1562034631.136228,35,37,33,148,59,66,45,23
1562034631.153088,37,31,35,154,52,56,44,21
1562034631.173658,39,32,37,158,46,52,43,23
1562034631.196257,41,29,41,170,44,58,37,23
1562034631.211148,42,31,44,151,43,57,26,25
1562034631.234122,44,30,45,164,40,60,24,25
1562034631.2644,49,35,43,148,41,62,23,25
1562034631.271145,45,35,41,143,39,52,24,26
1562034631.294067,50,37,44,140,41,43,21,25
1562034631.324376,47,37,42,141,38,42,24,24
1562034631.331243,45,37,44,123,39,38,25,26
1562034631.353742,45,34,45,131,42,54,27,27
1562034631.376175,47,34,49,131,42,59,41,26
1562034631.391073,43,35,46,99,42,59,44,27
1562034631.413628,45,38,50,101,42,60,45,26
1562034631.436266,43,42,56,95,48,62,45,25
1562034631.4512,42,41,57,125,48,51,44,23
1562034631.47363,41,39,55,130,50,53,32,23
1562034631.49624,44,38,58,139,48,61,26,22
1562034631.511063,43,32,57,150,50,64,22,22
1562034631.533662,45,27,53,156,45,63,21,23
1562034631.556311,43,29,53,125,47,72,24,25
1562034631.571245,46,32,51,122,50,76,24,24
1562034631.593674,45,32,48,120,54,73,27,26
1562034631.616211,46,33,47,111,52,69,25,26
1562034631.631206,48,35,44,114,50,71,25,25
1562034631.653596,46,34,46,121,47,63,24,25
1562034631.676348,48,34,46,116,45,62,24,25
1562034631.691183,46,33,45,110,40,59,21,23
1562034631.713707,46,35,44,110,41,60,21,24
1562034631.736145,48,38,58,108,42,60,20,26
1562034631.759346,48,43,57,95,38,56,19,26
1562034631.773744,42,42,56,103,36,47,19,25
1562034631.79622,41,46,55,102,39,47,21,25
1562034631.819346,45,46,52,89,50,64,22,26
1562034631.83364,41,44,37,137,53,63,22,26
1562034631.856303,42,40,44,153,58,70,23,25
1562034631.879574,45,40,43,153,61,76,23,26
1562034631.893712,45,37,44,164,61,82,22,26
1562034631.916254,43,35,48,163,51,70,22,22
1562034631.939494,41,38,49,131,51,69,22,22
1562034631.953606,38,39,41,119,44,61,21,23
1562034631.976396,35,40,41,114,39,51,21,23
1562034631.999505,43,41,40,100,38,47,21,24
1562034632.013705,44,41,44,116,41,60,21,25
1562034632.036136,46,37,45,122,45,62,22,25
1562034632.059514,50,34,53,126,45,63,21,22
1562034632.073574,52,33,53,126,50,66,23,24
1562034632.096265,43,29,57,131,51,61,23,23
1562034632.119351,41,30,53,124,47,62,22,25
1562034632.133623,45,30,50,103,44,64,22,24
1562034632.156231,41,30,45,104,45,65,25,25
1562034632.179437,40,32,48,110,44,62,23,21
1562034632.193747,46,35,43,100,42,62,23,21
1562034632.216263,45,35,43,108,42,54,24,20
1562034632.239482,42,38,42,115,44,65,24,22
1562034632.253684,45,39,41,109,44,64,21,24
1562034632.284295,44,38,38,113,39,62,22,24
1562034632.29946,40,36,43,122,41,65,21,23
1562034632.313556,38,35,41,111,42,61,21,25
1562034632.344369,42,32,46,106,50,91,21,25
1562034632.359371,41,30,44,110,52,97,21,24
1562034632.373713,44,30,43,147,55,100,22,24
1562034632.404389,45,30,46,145,55,100,23,24
1562034632.419422,45,32,48,149,54,100,23,22
1562034632.433655,44,33,50,148,49,84,24,22
1562034632.45681,46,34,49,138,53,82,25,23
1562034632.479567,46,32,52,103,53,84,24,24
1562034632.493603,45,36,46,108,57,88,24,25
1562034632.516719,48,37,49,100,60,89,23,26
1562034632.539539,47,37,46,114,55,69,23,25
1562034632.55366,44,35,47,120,51,66,23,24
1562034632.576889,41,38,46,116,56,64,23,25
1562034632.599427,43,37,46,127,57,58,22,25
1562034632.613607,42,35,43,127,58,63,25,23
1562034632.636857,38,33,41,126,56,64,24,22
1562034632.659356,43,35,42,133,60,68,25,24
1562034632.673769,42,33,42,128,53,69,25,23
1562034632.696867,38,30,47,112,45,67,25,23
1562034632.71947,39,32,45,109,42,64,24,24
1562034632.741795,44,32,44,124,44,70,24,27
1562034632.756773,43,34,43,125,38,69,22,26
1562034632.779293,44,31,45,125,39,67,23,25
1562034632.809989,47,31,39,136,40,71,22,24
1562034632.816714,46,31,41,141,40,74,26,24
1562034632.839377,46,29,43,128,40,69,26,21
1562034632.869276,44,28,48,139,37,63,26,21
1562034632.877072,42,31,49,139,40,71,26,23
1562034632.899501,42,31,52,132,40,73,28,23
1562034632.929197,43,29,51,148,43,72,26,23
1562034632.937467,39,31,51,139,47,77,28,23
1562034632.959362,36,32,46,118,47,77,29,23
1562034632.98945,39,33,41,126,48,72,28,21
1562034632.996732,39,32,40,132,46,70,28,23
1562034633.026579,37,34,41,110,44,68,28,23
1562034633.042144,40,34,44,127,41,58,28,24
1562034633.05744,42,35,44,139,40,61,28,23
1562034633.086584,41,36,53,135,41,64,30,23
1562034633.101771,46,37,52,125,45,63,28,24
1562034633.116503,44,37,56,126,42,59,26,23
1562034633.146864,47,35,57,143,46,75,23,25
1562034633.161843,47,32,55,133,47,73,23,25
1562034633.176182,49,27,53,128,46,68,21,27
1562034633.206776,45,29,56,138,43,68,21,25
1562034633.221958,47,31,50,142,43,77,22,27
1562034633.236257,43,31,46,173,45,67,23,25
1562034633.266821,45,31,47,178,44,66,26,24
1562034633.282055,41,34,38,179,42,65,28,23
1562034633.304298,39,33,37,173,44,63,27,24
1562034633.319488,36,36,43,173,51,70,27,26
1562034633.341907,32,36,45,135,50,69,29,25
1562034633.36455,30,37,46,131,48,68,28,26
1562034633.379378,33,40,51,142,51,72,26,25
1562034633.401987,39,40,53,147,52,77,27,25
1562034633.416238,42,37,49,148,48,62,26,23
1562034633.439449,45,39,48,148,52,64,22,23
1562034633.462094,48,39,49,158,54,71,20,23
1562034633.484372,46,35,46,174,52,67,20,24
1562034633.499462,46,34,41,169,49,62,21,23
1562034633.521882,49,35,45,173,56,77,21,24
1562034633.54428,52,35,51,156,47,74,22,24
1562034633.559627,51,32,48,149,52,73,27,23
1562034633.581875,55,33,55,121,56,80,27,23
1562034633.596271,52,33,57,127,57,81,27,23
1562034633.619456,53,32,56,121,53,74,26,22
1562034633.641909,50,30,50,139,58,75,26,22
1562034633.672068,47,30,54,136,57,70,23,24
1562034633.679512,44,28,44,148,57,66,24,23
1562034633.701663,45,31,43,165,61,71,26,24
1562034633.724762,39,28,42,165,64,72,25,24
1562034633.739476,39,29,47,163,67,73,25,25
1562034633.762399,41,33,45,166,64,76,26,24
1562034633.784401,42,33,45,152,61,76,28,22
1562034633.799369,43,32,44,137,60,71,27,21
1562034633.82175,43,39,44,138,51,64,26,20
1562034633.844388,46,37,40,122,43,64,28,20
1562034633.859408,46,36,42,157,48,67,25,22
1562034633.882011,46,37,44,171,48,64,23,24
1562034633.904302,45,37,43,174,45,66,23,24
1562034633.926865,44,30,42,180,50,70,24,24
1562034633.949316,44,32,43,182,51,72,23,24
1562034633.964242,44,32,42,163,44,65,25,25
1562034633.979447,45,33,41,198,45,66,24,23
1562034634.009398,45,33,39,189,46,67,26,26
1562034634.024332,46,34,39,181,44,62,27,27
1562034634.038637,44,33,39,185,44,54,28,29
1562034634.063674,42,34,40,169,47,54,31,28
1562034634.083755,40,31,38,122,46,56,31,31
1562034634.100364,41,32,38,121,46,55,28,28
1562034634.128689,39,33,39,139,48,63,29,27
1562034634.143669,37,33,40,134,49,66,28,24
1562034634.160099,37,36,40,137,50,66,23,24
1562034634.182832,35,39,42,152,48,62,22,21
1562034634.203669,40,40,44,156,47,70,23,32
1562034634.220634,49,37,44,155,46,67,24,35
1562034634.242811,51,36,42,187,43,64,24,34
1562034634.263744,53,33,45,189,42,62,26,36
1562034634.280576,57,32,47,190,40,65,27,37
1562034634.301509,56,30,47,186,45,58,26,30
1562034634.324172,51,32,47,175,44,53,25,33
1562034634.340389,54,34,47,151,46,61,31,34
1562034634.361218,53,32,40,150,46,62,33,32
1562034634.383679,50,33,38,132,50,71,33,33
1562034634.414506,47,33,42,180,49,67,34,33
1562034634.421271,50,34,41,185,52,69,34,29
1562034634.445504,45,42,39,178,60,69,35,30
1562034634.460531,65,42,40,183,61,79,61,43
1562034634.481176,67,45,43,204,61,73,81,44
1562034634.503757,72,44,46,166,63,74,92,45
1562034634.520429,71,44,51,171,63,70,96,45
1562034634.541146,75,38,53,162,58,71,97,45
1562034634.56376,68,38,52,155,59,73,84,34
1562034634.580539,67,32,52,133,57,69,67,34
1562034634.601226,60,35,43,135,52,68,56,31
1562034634.62386,62,33,45,144,49,75,50,32
1562034634.646236,58,32,50,159,53,76,43,33
1562034634.661156,47,30,52,162,49,63,41,32
1562034634.683751,50,32,49,149,51,64,37,32
1562034634.706141,51,35,52,158,55,76,33,32
1562034634.721311,48,35,46,135,55,69,37,30
1562034634.743628,55,35,42,128,45,64,39,34
1562034634.766158,56,39,41,153,47,69,40,35
1562034634.781129,56,39,45,152,50,72,40,33
1562034634.803599,55,38,45,143,45,63,37,34
1562034634.834488,52,40,41,156,57,77,44,39
1562034634.841149,47,39,40,147,58,77,44,38
1562034634.871303,47,37,38,122,59,76,43,38
1562034634.886169,45,36,38,122,56,74,45,38
1562034634.902967,55,35,35,117,61,72,65,43
1562034634.93136,57,31,33,103,50,59,60,43
1562034634.946276,76,29,35,111,49,61,100,45
1562034634.968642,88,30,36,117,51,60,106,60
1562034634.983545,102,31,34,145,56,68,108,87
1562034635.006424,106,29,39,149,50,66,104,87
1562034635.028789,111,29,44,147,49,71,105,87
1562034635.043746,101,35,44,142,48,74,79,86
1562034635.066175,97,37,45,153,47,76,72,78
1562034635.081107,84,36,48,134,41,66,66,50
1562034635.103762,75,37,49,153,43,71,54,46
1562034635.126077,84,39,46,175,50,73,52,46
1562034635.141218,82,37,47,185,53,73,40,43
1562034635.163749,75,35,46,178,55,67,55,44
1562034635.186253,72,37,43,175,55,68,60,40
1562034635.201162,74,39,42,156,56,75,61,40
1562034635.2237,74,38,44,154,53,75,59,40
1562034635.246252,71,33,45,166,53,72,56,39
1562034635.261247,71,37,46,162,53,76,37,38
1562034635.283739,73,37,46,166,54,84,38,37
1562034635.306158,86,35,46,173,51,77,41,42
1562034635.321132,74,37,45,154,49,72,40,45
1562034635.343714,75,40,46,146,48,73,44,50
1562034635.368075,76,38,45,137,48,73,51,47
1562034635.381154,77,38,46,130,49,71,48,61
1562034635.403662,62,37,47,114,51,68,47,74
1562034635.427939,77,40,47,108,51,78,59,77
1562034635.441088,77,42,43,80,54,94,66,81
1562034635.463747,79,42,45,104,52,98,70,82
1562034635.487994,81,39,47,106,52,102,73,75
1562034635.501239,82,40,45,102,58,118,77,61
1562034635.525397,68,38,45,127,60,118,73,56
1562034635.546828,69,34,50,131,59,112,67,49
1562034635.568671,66,31,48,119,59,113,59,48
1562034635.583705,72,32,49,118,59,117,63,53
1562034635.606161,71,31,51,144,51,103,60,51
1562034635.628685,75,29,53,226,62,94,55,51
1562034635.643638,74,35,51,232,65,90,56,46
1562034635.666188,83,37,55,259,64,82,58,47
1562034635.688661,86,38,52,268,62,63,50,41
1562034635.70374,98,39,48,266,69,71,58,43
1562034635.726166,99,40,46,213,59,78,80,44
1562034635.748614,103,34,43,215,56,72,82,45
1562034635.763741,101,34,37,195,63,73,86,45
1562034635.786151,123,35,37,203,64,74,110,106
1562034635.808599,117,35,39,205,59,70,151,127
1562034635.823747,121,33,39,199,73,82,153,133
1562034635.84618,124,35,39,210,106,100,161,136
1562034635.868747,121,38,45,215,105,100,176,148
1562034635.891523,90,39,47,230,108,100,164,117
1562034635.906107,98,39,46,220,107,111,149,99
1562034635.9286,87,39,45,242,103,107,158,110
1562034635.951231,113,45,50,252,78,94,166,111
1562034635.966266,118,41,46,234,73,90,148,104
1562034635.988665,124,40,42,205,75,92,150,101
1562034636.003767,124,41,50,225,82,80,142,100
1562034636.026188,138,42,52,187,74,67,134,98
1562034636.048496,112,36,51,167,79,70,122,95
1562034636.063699,109,39,51,210,89,81,123,86
1562034636.086079,106,41,60,224,85,82,120,84
1562034636.108655,95,38,54,227,92,78,111,79
1562034636.123662,90,39,54,243,92,81,96,58
1562034636.145988,94,40,64,231,84,82,83,54
1562034636.168784,94,39,69,206,77,75,77,52
1562034636.183636,90,36,65,195,84,81,76,48
1562034636.206179,116,35,65,162,70,79,64,51
1562034636.228645,111,32,71,130,68,76,50,39
1562034636.243731,112,36,73,138,68,95,53,40
1562034636.266121,112,37,69,165,68,94,53,38
1562034636.288743,110,40,70,168,58,83,51,37
1562034636.303701,80,46,75,181,58,86,43,32
1562034636.326076,71,49,75,187,60,88,44,36
1562034636.356689,64,48,68,179,57,55,38,34
1562034636.363791,56,47,72,179,53,54,38,34
1562034636.386244,52,46,68,166,56,57,38,35
1562034636.416988,53,42,66,150,55,55,33,35
1562034636.423716,43,39,59,164,58,59,45,30
1562034636.446641,46,38,61,165,53,82,49,30
1562034636.476884,43,42,75,120,58,85,52,30
1562034636.491945,45,40,79,144,62,84,49,45
1562034636.506194,46,42,79,150,73,88,54,65
1562034636.536826,48,41,91,133,83,85,54,68
1562034636.551777,47,40,91,156,90,63,52,68
1562034636.566173,45,35,82,162,95,62,51,115
1562034636.588586,51,33,81,148,100,72,65,284
1562034636.612098,56,36,82,144,101,64,83,407
1562034636.626156,55,37,73,138,96,66,81,426
1562034636.648608,58,36,69,141,93,69,83,432
1562034636.671855,58,36,60,134,91,70,85,426
1562034636.686209,54,38,56,121,98,61,128,373
1562034636.708755,48,34,48,116,94,64,129,267
1562034636.73194,48,33,37,114,100,63,142,269
1562034636.746283,47,37,50,89,114,68,147,291
1562034636.768626,56,36,55,89,113,74,148,360
1562034636.791996,57,33,57,100,114,82,130,337
1562034636.806326,61,33,58,108,116,88,159,323
1562034636.828573,60,36,62,104,108,90,152,301
1562034636.852405,59,39,58,86,104,106,153,270
1562034636.874361,55,38,54,87,107,139,161,159
1562034636.888615,58,40,54,79,93,137,145,131
1562034636.912192,57,42,57,84,85,134,102,87
1562034636.926103,65,43,55,96,86,146,127,88
1562034636.948588,68,41,58,115,84,137,122,154
1562034636.979704,67,41,63,128,76,114,114,164
1562034636.986069,68,42,62,133,73,124,127,165
1562034637.00851,70,43,65,198,79,132,178,170
1562034637.031951,63,44,69,241,92,142,169,198
1562034637.045914,63,43,80,346,106,141,172,171
1562034637.068677,59,44,77,380,126,162,188,292
1562034637.091927,58,47,92,448,151,268,191,298
1562034637.10623,54,53,114,509,166,283,149,299
1562034637.128607,60,52,118,543,163,272,135,276
1562034637.151832,53,51,111,494,151,274,155,268
1562034637.166187,57,54,121,513,136,267,139,118
1562034637.196865,53,50,113,478,108,156,145,94
1562034637.211888,52,41,89,410,80,119,158,78
1562034637.226223,46,40,89,348,65,115,165,77
1562034637.248537,50,41,85,334,60,110,141,64
1562034637.279444,51,41,68,276,55,85,131,48
1562034637.286238,51,43,66,250,60,79,125,40
1562034637.308588,53,42,75,218,62,71,111,148
1562034637.331834,56,40,73,235,77,74,111,238
1562034637.346241,58,39,86,251,95,74,151,450
1562034637.368368,67,37,91,244,133,89,234,548
1562034637.398518,69,36,90,236,149,85,254,637
1562034637.405257,70,38,82,226,177,90,273,689
1562034637.427752,67,40,78,196,177,91,280,694
1562034637.450899,64,45,63,173,169,86,276,603
1562034637.47399,54,44,54,152,145,81,220,633
1562034637.488242,61,46,53,135,150,81,212,682
1562034637.511886,70,44,55,144,125,87,236,641
1562034637.534093,73,42,46,157,119,85,221,612
1562034637.548639,73,42,54,141,116,91,209,618
1562034637.57159,73,43,53,150,116,78,203,528
1562034637.594363,67,39,55,171,96,87,262,433
1562034637.60832,61,44,54,198,78,81,228,428
1562034637.631833,56,43,53,185,79,90,237,430
1562034637.654334,55,38,54,202,81,87,245,435
1562034637.67696,54,37,58,196,91,91,277,469
1562034637.691874,61,40,58,203,95,84,197,475
1562034637.714263,56,36,58,191,100,84,207,471
1562034637.728508,59,38,61,183,97,73,201,495
1562034637.751951,61,39,53,175,102,68,219,510
1562034637.781919,58,40,51,220,97,63,193,472
1562034637.788558,50,42,54,223,102,75,199,382
1562034637.812429,53,42,54,217,108,73,208,355
1562034637.841764,52,42,52,234,134,82,219,342
1562034637.848657,50,42,59,380,133,89,213,282
1562034637.894976,51,43,57,369,132,104,233,257
1562034637.896557,54,38,50,368,132,95,277,286
1562034637.907781,57,39,55,374,125,103,258,277
1562034637.931638,58,38,55,367,101,101,251,250
1562034637.953539,73,43,49,234,99,104,252,238
1562034637.968073,78,45,51,230,118,96,234,220
1562034637.9914,76,48,55,223,124,101,189,162
1562034638.014265,73,46,52,217,134,96,196,174
1562034638.028503,71,48,57,211,136,101,199,162
1562034638.051643,56,45,58,180,136,94,177,128
1562034638.074287,51,43,56,160,121,88,166,131
1562034638.088587,51,36,53,159,99,85,196,134
1562034638.111766,49,37,56,167,82,82,195,109
1562034638.133926,50,35,54,186,77,77,199,101
1562034638.150431,51,35,52,183,76,79,206,111
1562034638.17204,47,34,51,178,67,81,199,94
1562034638.194726,48,36,52,174,69,75,175,92
1562034638.208523,51,36,47,146,73,73,169,85
1562034638.231705,48,37,43,126,75,67,156,105
1562034638.254299,44,34,39,128,83,65,146,85
1562034638.268603,46,31,43,135,83,61,144,83
1562034638.306683,41,30,43,123,78,59,152,77
1562034638.314304,36,30,43,165,81,57,143,77
1562034638.329117,42,31,46,161,83,69,144,68
1562034638.351799,44,32,46,168,73,68,144,69
1562034638.374294,45,33,43,171,74,66,176,70
1562034638.396869,42,35,47,183,78,67,160,70
1562034638.419507,45,39,46,163,77,71,158,70
1562034638.434472,40,36,44,168,69,63,167,63
1562034638.456874,40,36,50,216,72,69,163,68
1562034638.47193,42,37,51,219,71,69,153,66
1562034638.49438,48,38,49,215,73,76,138,67
1562034638.516859,48,35,48,217,72,83,198,67
1562034638.532007,51,37,48,247,79,80,186,55
1562034638.554398,51,39,57,225,76,73,197,48
1562034638.584337,48,40,60,218,77,71,194,50
1562034638.591911,44,43,66,215,88,78,207,47
1562034638.614079,42,44,67,225,92,73,149,46
1562034638.636884,40,43,67,189,88,77,165,52
1562034638.652001,41,41,60,162,86,77,196,50
1562034638.674288,45,40,58,193,90,75,180,58
1562034638.696826,43,36,56,197,75,64,169,61
1562034638.712192,46,34,55,170,67,58,170,59
1562034638.734294,45,35,54,213,71,68,170,52
1562034638.757413,44,35,62,226,78,69,178,55
1562034638.772041,41,36,63,202,72,71,177,36
1562034638.794421,45,33,59,194,73,71,181,33
1562034638.816806,44,33,60,218,70,68,179,34
1562034638.831162,43,35,59,191,78,53,165,32
1562034638.854437,51,40,63,209,83,65,98,29
1562034638.884424,52,38,62,245,82,73,134,30
1562034638.891116,53,37,64,253,83,74,135,30
1562034638.914451,52,39,65,244,85,76,132,29
1562034638.936878,52,39,65,242,77,91,166,39
1562034638.951397,45,36,55,218,79,82,184,41
1562034638.974375,45,42,63,232,86,74,185,43
1562034638.997721,45,44,63,236,85,74,183,44
1562034639.011002,44,42,63,257,89,83,192,50
1562034639.034077,46,41,65,256,93,75,214,52
1562034639.055892,50,41,64,277,89,76,205,50
1562034639.070256,51,36,57,246,80,76,190,50
1562034639.093499,50,33,55,260,79,74,190,49
1562034639.116503,54,34,56,297,78,70,195,46
1562034639.130682,52,35,59,312,75,62,141,36
1562034639.154096,49,35,73,298,72,60,128,40
1562034639.176864,47,41,72,289,78,61,118,38
1562034639.198639,51,47,72,288,88,71,167,39
1562034639.21532,50,47,75,247,84,84,228,40
1562034639.236303,50,45,73,255,90,86,241,39
1562034639.258407,50,45,61,246,90,87,241,37
1562034639.274467,48,38,59,252,94,94,240,44
1562034639.295287,44,33,56,229,90,93,227,47
1562034639.317828,39,31,51,230,91,75,158,49
1562034639.341907,39,34,57,247,92,78,154,53
1562034639.355595,44,37,59,257,89,87,159,52
1562034639.378591,46,39,64,312,84,79,194,50
1562034639.411158,50,42,67,312,92,79,187,48
1562034639.41606,54,43,65,309,97,82,220,41
1562034639.438632,56,43,61,291,88,88,245,91
1562034639.455482,53,43,55,346,107,92,244,98
1562034639.476238,54,43,52,320,117,95,230,99
1562034639.498661,50,42,55,319,106,91,229,100
1562034639.515447,47,40,58,313,111,88,212,102
1562034639.536258,50,39,56,296,110,82,195,62
1562034639.558637,51,39,53,278,98,78,203,60
1562034639.575137,50,37,51,253,89,76,193,56
1562034639.595609,54,37,50,259,97,87,189,55
1562034639.61777,56,41,51,252,87,87,201,56
1562034639.634238,50,45,51,257,91,86,194,61
1562034639.65562,48,40,50,213,91,79,182,50
1562034639.678123,49,41,53,252,92,79,182,58
1562034639.694758,42,40,49,241,91,70,208,59
1562034639.717567,40,38,47,247,98,75,189,64
1562034639.738576,40,34,49,243,98,72,173,59
1562034639.755398,39,36,50,271,96,69,192,59
1562034639.776189,42,36,48,236,91,86,192,52
1562034639.806137,43,35,55,281,95,85,176,51
1562034639.815398,50,33,59,275,92,84,172,42
1562034639.837921,50,33,56,289,96,86,184,87
1562034639.866225,51,33,58,266,110,100,169,89
1562034639.875356,50,33,55,299,139,99,188,91
1562034639.896248,49,34,52,286,140,99,171,92
1562034639.918821,42,32,46,300,139,99,178,93
1562034639.935776,44,35,52,321,136,100,171,57
1562034639.956236,44,34,48,309,125,89,163,56
1562034639.978624,42,34,52,271,97,80,165,52
1562034639.995531,46,35,49,316,104,79,173,51
1562034640.016416,46,37,50,300,105,79,173,54
1562034640.038598,50,38,47,252,106,85,180,85
1562034640.055305,53,38,47,264,109,87,194,92
1562034640.076225,52,44,46,262,106,79,175,94
1562034640.105892,53,44,43,179,97,77,159,97
1562034640.115202,56,43,50,187,92,72,149,93
1562034640.13596,50,42,48,215,99,84,188,74
1562034640.158519,47,43,54,254,119,99,184,63
1562034640.175399,54,35,53,249,124,103,179,61
1562034640.196143,50,37,55,241,122,103,179,57
1562034640.218531,51,38,47,224,127,106,213,105
1562034640.241041,56,36,47,220,123,88,195,110
1562034640.255997,56,38,45,167,101,69,201,113
1562034640.280322,55,36,45,165,104,64,201,117
1562034640.30984,57,39,49,162,103,64,204,117
1562034640.316114,52,38,49,164,98,62,172,85
1562034640.338754,56,37,48,144,110,79,188,93
1562034640.362963,54,36,45,126,110,85,176,92
1562034640.376252,53,36,47,219,107,84,178,86
1562034640.398656,50,35,44,224,119,86,176,85
1562034640.421146,54,37,45,233,122,95,163,78
1562034640.436286,46,40,45,225,108,88,138,61
1562034640.45871,44,41,43,222,105,85,136,61
1562034640.481214,45,43,41,194,108,85,150,62
1562034640.496262,46,40,49,200,106,86,150,62
1562034640.52064,44,37,54,189,104,78,146,58
1562034640.541178,42,35,57,185,103,67,106,42
1562034640.556356,43,31,58,183,103,57,132,59
1562034640.578709,37,28,60,104,95,58,122,56
1562034640.601192,39,32,51,82,83,52,122,58
1562034640.623751,40,31,46,92,87,43,141,63
1562034640.638678,47,31,45,102,91,68,139,88
1562034640.661181,48,33,46,115,95,71,116,87
1562034640.676134,48,37,42,121,92,72,110,93
1562034640.698682,49,38,42,119,86,85,149,103
1562034640.721223,50,40,42,152,81,95,145,114
1562034640.736179,46,40,40,160,77,87,145,161
1562034640.75856,44,38,38,154,71,87,152,162
1562034640.781165,47,39,38,164,77,94,145,177
1562034640.797726,48,38,40,213,76,83,105,208
1562034640.818681,44,37,40,191,83,75,111,237
1562034640.841076,44,38,40,186,84,67,158,207
1562034640.856176,45,38,40,184,89,61,157,222
1562034640.886726,58,40,38,181,105,91,191,479
1562034640.901146,56,40,35,118,107,94,200,498
1562034640.916218,58,40,36,107,99,92,191,494
1562034640.938585,76,40,47,101,112,96,189,724
1562034640.960985,78,41,51,109,115,99,195,729
1562034640.977695,72,37,56,129,98,60,188,598
1562034640.998607,76,36,56,131,126,55,203,747
1562034641.021182,91,44,61,132,141,67,252,872
1562034641.036245,79,43,57,138,140,69,229,702
1562034641.058653,78,44,54,134,135,70,223,704
1562034641.081416,77,43,51,109,132,72,208,718
1562034641.096145,76,48,55,108,116,104,238,601
1562034641.118652,55,40,49,128,98,97,184,407
1562034641.141203,52,42,48,120,92,94,187,444
1562034641.156141,57,45,56,124,104,94,189,544
1562034641.178629,54,44,59,129,111,103,191,566
1562034641.201154,49,38,54,127,110,89,150,508
1562034641.223653,46,37,56,109,111,88,152,494
1562034641.238628,44,36,60,176,108,88,147,446
1562034641.261169,37,31,55,177,97,86,150,294
1562034641.283521,41,35,61,239,92,81,150,179
1562034641.300385,41,37,65,294,82,67,172,128
1562034641.32108,46,40,66,319,86,72,168,112
1562034641.351867,49,43,63,306,85,74,197,98
1562034641.358564,48,43,63,308,87,73,190,82
1562034641.381291,47,41,57,285,88,66,184,68
1562034641.411904,47,41,57,284,91,63,138,57
1562034641.418652,45,42,60,305,85,72,181,77
1562034641.441496,44,44,63,299,83,82,148,71
1562034641.463709,43,44,61,298,92,88,150,71
1562034641.478567,43,45,59,284,94,92,151,69
1562034641.501105,44,43,58,261,96,94,184,87
1562034641.523637,45,41,52,213,94,86,154,71
1562034641.538563,43,34,43,199,91,75,156,70
1562034641.561128,43,34,42,193,77,70,154,68
1562034641.583643,46,35,39,188,74,84,151,67
1562034641.598789,46,37,40,198,72,83,139,42
1562034641.620994,47,39,48,201,76,87,188,48
1562034641.643743,48,42,54,201,79,85,195,51
1562034641.658675,51,42,57,213,83,86,198,50
1562034641.681133,47,44,60,210,85,94,198,52
1562034641.703741,51,42,64,174,79,92,186,50
1562034641.71868,48,39,60,194,76,84,151,36
1562034641.741141,50,40,56,204,76,85,165,42
1562034641.7638,50,41,58,214,69,83,162,42
1562034641.778586,50,38,69,244,64,54,167,38
1562034641.809519,47,42,65,255,67,60,188,40
1562034641.824109,48,43,63,234,72,63,173,41
1562034641.838582,45,38,64,240,73,62,156,37
1562034641.869381,46,36,64,226,73,67,158,40
1562034641.883707,46,38,60,326,76,65,150,40
1562034641.90703,43,37,62,329,74,65,109,39
1562034641.921205,45,39,62,330,66,72,140,38
1562034641.9437,44,41,61,324,60,72,137,31
1562034641.958555,40,42,56,325,64,66,130,29
1562034641.981208,39,41,43,196,59,63,131,41
1562034642.003741,41,40,34,169,81,62,160,92
1562034642.018723,42,38,34,177,99,67,186,98
1562034642.041208,43,37,37,177,139,76,191,100
1562034642.063744,44,34,38,170,146,78,192,108
1562034642.086759,47,33,39,159,153,98,214,165
1562034642.109403,51,33,43,161,150,108,212,174
1562034642.123669,53,34,45,149,153,103,165,188
1562034642.146813,51,32,42,141,127,99,152,200
1562034642.160956,57,39,51,218,150,114,156,203
1562034642.183732,56,43,51,231,153,111,207,160
1562034642.206958,53,42,49,225,156,101,190,135
1562034642.221204,51,40,49,264,145,95,219,115
1562034642.251972,54,41,51,265,137,104,219,92
1562034642.266913,50,38,44,265,119,100,251,81
1562034642.281685,47,40,47,264,120,92,201,96
1562034642.30438,47,39,53,276,111,105,213,85
1562034642.327096,43,44,55,315,114,108,186,183
1562034642.341208,42,47,67,407,143,101,262,437
1562034642.364413,50,49,68,407,138,98,251,515
1562034642.394429,52,48,66,398,127,94,252,529
1562034642.401263,51,49,65,389,125,78,251,598
1562034642.424721,61,47,63,329,126,79,256,649
1562034642.446924,63,46,50,200,99,81,179,551
1562034642.461699,56,41,46,137,96,76,160,496
1562034642.483934,53,38,50,139,96,75,203,490
1562034642.507459,67,36,47,136,117,71,222,643
1562034642.520236,60,36,45,144,118,69,217,585
1562034642.543465,60,34,51,167,134,81,263,698
1562034642.566193,71,34,55,159,150,79,312,763
1562034642.580461,71,33,51,164,150,78,290,776
1562034642.604091,64,35,51,168,147,88,290,661
1562034642.626727,66,41,54,164,157,94,304,742
1562034642.641099,67,43,49,160,163,83,285,710
1562034642.664284,58,45,53,148,144,80,246,638
1562034642.686832,71,46,55,140,157,81,253,742
1562034642.701091,68,45,55,134,166,86,231,705
1562034642.724208,68,41,50,122,161,81,220,625
1562034642.746778,86,41,56,96,173,74,257,652
1562034642.760899,95,46,58,107,173,79,254,731
1562034642.784308,89,45,55,108,165,84,240,621
1562034642.806694,92,42,55,119,151,72,253,634
1562034642.830431,93,41,57,124,149,72,247,676
1562034642.844315,74,37,48,185,129,75,196,572
1562034642.867425,64,27,39,178,132,68,190,498
1562034642.889062,62,31,41,179,127,74,209,487
1562034642.904376,57,33,42,178,120,73,195,450
1562034642.926849,56,34,47,185,118,71,188,380
1562034642.941122,53,33,52,158,106,73,193,332
1562034642.964278,52,36,58,218,107,91,193,270
1562034642.987318,47,34,58,225,113,88,203,271
1562034643.001044,47,33,56,235,122,86,199,242
1562034643.024359,42,32,50,235,113,86,217,189
1562034643.046848,42,32,54,221,108,89,197,172
1562034643.061203,40,30,52,203,115,78,213,153
1562034643.09238,40,33,50,204,132,69,191,109
1562034643.107225,39,36,51,198,129,71,190,115
1562034643.129424,45,38,55,200,153,72,191,116
1562034643.151741,50,40,59,230,157,74,230,111
1562034643.167419,48,39,55,214,150,78,259,117
1562034643.189296,51,35,54,221,136,77,250,106
1562034643.204318,58,35,53,234,186,88,261,87
1562034643.22685,57,35,52,240,193,90,252,83
1562034643.249809,54,37,38,202,204,84,262,95
1562034643.264326,54,38,37,189,208,72,244,90
1562034643.286904,57,43,39,221,237,104,245,94
1562034643.325098,54,48,51,222,265,106,241,101
1562034643.32733,53,48,48,232,251,105,247,100
1562034643.354422,51,46,53,242,248,104,202,88
1562034643.369449,50,47,56,238,272,107,151,70
1562034643.384265,49,49,57,215,254,85,215,65
1562034643.414427,47,42,57,255,194,82,212,67
1562034643.429415,48,43,59,241,204,81,199,68
1562034643.443642,49,44,66,236,201,79,193,72
1562034643.466828,48,45,66,233,163,81,198,69
1562034643.489939,44,38,66,208,157,69,154,95
1562034643.504347,45,40,61,141,162,65,146,84
1562034643.526954,47,40,65,128,168,66,143,86
1562034643.549437,46,39,55,118,156,71,145,84
1562034643.563781,49,36,54,122,166,70,164,103
1562034643.586986,53,43,57,139,175,78,178,90
1562034643.609372,54,42,61,126,173,79,185,86
1562034643.623713,50,41,61,129,160,77,185,86
1562034643.646845,50,40,59,122,160,79,187,85
1562034643.669349,49,42,59,115,150,78,182,78
1562034643.683786,45,38,59,105,140,72,188,73
1562034643.721995,46,38,56,107,129,63,204,104
1562034643.729292,47,39,50,99,125,64,209,108
1562034643.743656,52,38,50,104,131,63,212,108
1562034643.766785,53,40,49,119,143,72,240,102
1562034643.789836,54,36,43,130,138,80,209,110
1562034643.812073,49,36,45,126,136,78,200,85
1562034643.826869,56,44,47,124,146,97,201,85
1562034643.849363,54,47,51,121,147,97,194,85
1562034643.863864,51,45,54,106,137,94,178,81
1562034643.886889,51,46,54,142,133,90,183,60
1562034643.916852,52,46,54,167,127,97,174,52
1562034643.923741,49,39,52,193,113,81,175,72
1562034643.946912,48,36,48,208,113,82,172,70
1562034643.969854,286,304,249,399,340,194,446,307
1562034643.983699,628,486,438,532,703,246,574,394
1562034644.006956,636,511,452,548,715,259,585,402
1562034644.029256,641,518,457,542,724,260,586,399
1562034644.051831,646,522,463,551,732,262,590,402
1562034644.066803,587,431,397,488,667,194,422,270
1562034644.089436,188,208,170,328,262,126,210,115
1562034644.111887,164,138,129,292,243,90,175,82
1562034644.126936,149,112,113,291,213,83,177,81
1562034644.149359,124,90,89,290,176,70,164,64
1562034644.17204,100,63,70,226,144,68,157,53
1562034644.194301,77,47,62,223,142,63,189,50
1562034644.209422,70,44,58,234,120,61,184,49
1562034644.231854,61,41,52,233,124,64,167,39
1562034644.254448,60,41,53,215,134,93,166,37
1562034644.269371,59,37,49,194,123,92,137,42
1562034644.291981,59,39,61,196,118,91,128,37
1562034644.306131,56,39,58,177,137,96,165,37
1562034644.337948,55,40,63,214,129,96,171,36
1562034644.375022,58,36,62,218,304,75,175,34
1562034644.377118,51,37,65,204,348,74,176,36
1562034644.390392,51,31,59,221,388,79,166,36
1562034644.413492,52,38,63,232,551,81,133,36
1562034644.435356,57,325,82,233,628,85,128,38
1562034644.450921,97,378,100,221,984,215,125,41
1562034644.478712,177,430,115,235,1178,825,131,45
1562034644.495516,317,453,158,211,1287,1096,108,55
1562034644.510491,327,540,160,204,1486,1324,116,62
1562034644.531198,349,437,175,158,1611,1571,116,67
1562034644.547945,347,408,167,170,1507,1695,117,65
1562034644.570547,319,416,157,148,1402,1582,102,63
1562034644.59116,200,502,268,137,1374,1622,84,56
1562034644.607931,193,427,321,139,1163,1539,68,51
1562034644.630334,213,449,381,467,1022,1512,81,58
1562034644.651147,358,439,454,670,1013,1628,83,70
1562034644.67367,364,427,485,911,972,1598,86,68
1562034644.697851,380,351,449,925,893,1444,101,72
1562034644.71121,379,363,782,1039,827,1379,124,75
1562034644.728051,367,464,1020,1050,782,1166,128,84
1562034644.750474,304,891,1070,1057,651,843,138,104
1562034644.771297,585,1134,1135,942,627,809,173,106
1562034644.788132,748,1182,1216,990,569,877,219,105
1562034644.808705,794,1270,1076,965,536,945,257,105
1562034644.831276,874,1275,943,935,491,1093,272,96
1562034644.855418,877,1103,932,845,372,1067,281,74
1562034644.868601,806,961,951,900,361,1134,319,74
1562034644.893054,855,1078,912,892,488,1039,320,72
1562034644.907935,851,1001,947,856,530,964,305,70
1562034644.928645,859,1072,939,931,524,772,425,73
1562034644.945331,867,1086,1023,1021,527,761,426,79
1562034644.968072,900,1025,999,979,576,727,427,92
1562034644.98861,806,929,999,1032,524,814,432,122
1562034645.005429,800,994,971,1012,572,808,500,143
1562034645.027758,818,902,962,919,666,828,595,158
1562034645.048499,847,913,859,826,742,835,649,167
1562034645.06523,776,931,847,752,728,740,850,173
1562034645.087971,731,931,811,618,699,614,891,177
1562034645.110234,720,844,786,694,633,604,932,197
1562034645.125274,634,837,721,718,494,537,906,326
1562034645.148219,577,722,655,671,353,506,888,411
1562034645.168782,536,653,578,640,281,456,685,407
1562034645.185487,457,503,538,629,253,434,615,409
1562034645.207979,430,502,460,481,186,483,481,398
1562034645.228683,344,443,386,325,214,512,287,326
1562034645.245423,280,411,353,275,218,513,196,211
1562034645.267967,221,368,340,279,374,521,144,212
1562034645.288571,238,350,323,276,491,532,135,196
1562034645.30553,206,294,323,265,626,454,116,187
1562034645.33561,211,284,315,209,644,409,94,123
1562034645.356206,206,266,332,174,685,332,103,115
1562034645.365428,197,274,289,143,619,392,110,113
1562034645.387909,179,267,245,84,531,369,111,111
1562034645.416129,169,252,220,52,366,391,113,110
1562034645.425249,152,259,211,56,310,389,155,115
1562034645.448739,153,444,180,54,180,379,169,93
1562034645.476297,216,471,152,54,159,297,164,90
1562034645.491337,198,467,142,52,157,253,161,75
1562034645.508039,195,463,138,60,142,153,191,77
1562034645.528561,191,440,115,58,134,128,173,77
1562034645.551189,184,236,61,57,130,119,159,77
1562034645.576128,90,145,49,59,95,52,158,76
1562034645.588652,64,124,43,62,74,51,173,74
1562034645.611791,61,114,34,65,74,44,155,73
1562034645.628023,56,109,34,68,73,39,158,76
1562034645.648567,55,110,38,70,97,39,166,77
1562034645.671183,54,63,43,67,98,47,175,78
1562034645.693663,51,58,44,67,101,46,167,80
1562034645.70864,54,55,45,58,98,50,162,76
1562034645.731214,55,53,47,48,101,51,142,66
1562034645.747998,56,48,44,49,89,50,139,67
1562034645.768709,55,49,38,54,92,45,140,67
1562034645.791225,58,42,37,54,103,46,137,65
1562034645.821857,52,35,35,62,103,47,141,63
1562034645.828533,48,30,35,62,103,48,146,70
1562034645.853443,45,31,35,60,88,47,162,73
1562034645.868042,46,29,35,53,88,44,165,78
1562034645.888692,46,33,35,61,73,46,161,79
1562034645.920615,53,37,39,60,70,45,150,79
1562034645.949335,53,40,36,59,63,48,150,62
1562034645.956201,52,40,37,60,64,48,132,56
1562034645.973103,52,42,41,61,54,48,125,61
1562034645.993686,48,41,43,53,53,48,128,66
1562034646.016242,43,40,42,45,54,47,128,67
1562034646.031235,38,40,43,45,64,48,119,67
1562034646.053694,41,41,43,40,64,54,146,68
1562034646.076132,38,41,43,50,58,55,142,53
1562034646.091052,40,40,43,62,55,53,143,50
1562034646.113575,43,40,43,71,76,55,148,73
1562034646.136242,44,39,45,74,80,52,147,101
1562034646.151192,44,35,44,77,90,48,101,108
1562034646.173383,47,34,44,73,92,49,91,112
1562034646.196204,48,34,43,77,91,49,93,112
1562034646.211214,44,33,43,76,76,48,91,111
1562034646.233853,43,35,43,84,64,47,122,86
1562034646.256212,41,34,44,82,45,49,137,76
1562034646.271277,40,33,39,80,44,47,141,72
1562034646.293583,38,33,40,81,49,45,158,74
1562034646.316489,43,30,39,94,57,41,160,70
1562034646.331394,42,28,35,89,83,40,179,69
1562034646.353729,40,30,36,94,84,44,171,67
1562034646.376286,38,30,38,98,94,47,176,67
1562034646.391289,38,27,34,96,110,48,184,75
1562034646.421879,41,30,34,91,129,50,196,72
1562034646.437096,42,31,36,150,304,55,165,71
1562034646.451244,43,61,36,155,321,57,166,73
1562034646.473709,44,91,41,156,333,54,158,72
1562034646.496562,45,96,44,153,331,56,127,58
1562034646.51115,39,101,43,147,334,55,120,57
1562034646.533668,38,100,39,89,181,52,119,56
1562034646.556255,41,86,40,74,150,48,125,78
1562034646.571187,49,53,35,84,115,48,123,171
1562034646.593678,50,44,32,80,117,47,120,335
1562034646.616328,77,32,33,79,85,47,149,363
1562034646.631229,81,31,37,79,101,50,147,386
1562034646.653678,84,27,35,79,110,46,138,451
1562034646.676193,85,30,35,66,122,49,142,469
1562034646.699496,89,31,35,63,112,48,141,398
1562034646.71363,71,35,35,72,106,50,94,396
1562034646.736085,69,37,33,69,92,47,130,393
1562034646.751208,66,40,36,70,80,46,135,411
1562034646.773655,65,38,36,65,56,49,137,401
1562034646.7962,62,38,37,64,55,52,136,389
1562034646.811176,62,36,35,51,55,51,129,431
1562034646.833595,66,39,39,59,42,55,159,439
1562034646.864435,66,40,38,59,43,56,155,408
1562034646.871161,64,44,42,62,45,56,159,468
1562034646.901887,63,47,39,69,47,59,167,494
1562034646.916258,61,47,42,70,47,60,168,456
1562034646.939481,56,44,40,64,46,53,123,491
1562034646.961934,57,41,39,64,43,53,135,543
1562034646.976247,55,38,37,65,47,53,140,471
1562034646.999511,58,33,41,62,46,45,131,607
1562034647.022647,55,35,39,64,45,43,133,631
1562034647.036223,54,37,38,63,46,44,125,590
1562034647.059393,54,35,40,63,47,47,177,513
1562034647.073798,55,37,35,63,39,43,174,524
1562034647.096255,50,39,34,61,38,46,175,311
1562034647.119321,49,38,35,56,37,48,172,223
1562034647.133679,47,34,39,53,39,48,165,212
1562034647.155958,45,34,37,52,41,46,170,185
1562034647.179371,39,34,39,52,43,48,169,115
1562034647.193598,40,37,37,76,42,56,174,92
1562034647.216243,40,37,39,78,43,58,196,88
1562034647.239427,41,43,37,78,42,64,211,81
1562034647.253557,43,44,38,78,46,63,171,75
1562034647.276192,43,42,38,79,54,59,166,72
1562034647.299498,42,37,41,55,52,53,172,67
1562034647.313666,46,38,39,55,51,48,153,68
1562034647.336222,49,34,37,58,49,40,138,76
1562034647.359414,42,34,37,58,42,41,127,68
1562034647.373617,43,33,36,53,41,42,130,65
1562034647.396219,44,34,34,53,41,39,133,66
1562034647.419486,41,33,38,54,47,48,124,80
1562034647.433727,41,32,39,63,48,52,135,69
1562034647.456031,43,31,38,74,58,53,129,68
1562034647.486159,42,32,40,79,100,56,155,69
1562034647.492845,41,35,46,105,129,67,154,73
1562034647.515288,41,35,44,106,138,63,157,59
1562034647.538422,38,38,42,101,150,62,141,57
1562034647.55314,49,39,45,96,169,60,144,67
1562034647.575639,48,38,44,97,152,62,138,82
1562034647.599217,46,39,41,73,148,50,121,85
1562034647.613567,48,41,40,75,144,51,135,84
1562034647.635989,48,39,38,77,137,50,136,83
1562034647.659326,38,42,38,73,110,52,158,74
1562034647.673721,39,42,37,71,111,51,145,58
1562034647.696231,55,41,32,65,95,54,149,49
1562034647.726862,56,41,38,59,91,50,134,45
1562034647.733635,57,39,38,53,84,57,141,45
1562034647.756203,59,37,36,54,87,56,116,71
1562034647.779449,67,38,34,47,75,57,130,73
1562034647.793658,57,39,35,46,62,53,131,74
1562034647.816314,59,35,32,46,95,55,133,74
1562034647.83934,59,38,34,70,133,50,157,79
1562034647.861855,58,36,33,76,137,53,163,62
1562034647.884362,56,38,33,76,137,51,170,61
1562034647.899478,57,35,34,78,137,50,199,70
1562034647.921883,54,39,33,81,116,49,197,71
1562034647.944161,52,38,32,69,65,48,172,67
1562034647.959392,56,39,36,66,52,48,167,65
1562034647.981532,53,38,37,67,51,49,155,62
1562034647.995246,51,40,38,66,49,50,124,65
1562034648.018431,50,39,40,64,44,52,124,65
1562034648.040913,52,40,41,56,47,48,122,64
1562034648.055261,45,37,40,57,46,45,125,66
1562034648.078692,46,35,43,60,54,41,140,70
1562034648.101401,43,33,44,60,50,38,120,52
1562034648.115946,42,32,43,64,53,41,123,49
1562034648.139194,41,31,43,68,51,41,126,59
1562034648.161686,46,37,41,73,56,46,119,57
1562034648.176153,40,36,39,70,46,49,75,54
1562034648.19923,40,40,37,72,49,53,85,55
1562034648.221839,43,41,38,73,55,52,113,58
1562034648.236206,43,40,37,73,54,52,113,47
1562034648.259304,42,37,37,73,60,55,118,48
1562034648.281776,43,38,38,76,79,58,122,61
1562034648.296245,44,35,38,73,103,55,124,61
1562034648.319447,42,35,37,66,119,55,109,61
1562034648.34175,44,39,38,89,122,64,146,62
1562034648.356097,38,39,40,81,126,57,143,58
1562034648.37948,41,39,38,83,117,60,144,61
1562034648.401837,41,39,36,84,105,61,148,66
1562034648.416295,42,37,37,97,93,60,149,63
1562034648.439432,40,37,34,80,102,53,121,63
1562034648.461867,42,38,31,80,92,54,134,64
1562034648.476113,41,38,34,77,100,46,129,46
1562034648.499516,41,37,33,79,105,44,113,54
1562034648.521749,42,38,34,70,94,49,109,57
1562034648.536248,45,37,36,91,81,51,109,58
1562034648.559311,44,34,37,122,83,48,106,64
1562034648.581686,42,32,38,129,81,52,105,80
1562034648.596024,45,33,40,133,66,62,112,70
1562034648.619306,43,31,38,145,71,60,132,75
1562034648.641991,46,29,40,133,77,57,122,75
1562034648.656428,43,33,37,113,76,58,119,70
1562034648.679404,48,35,34,132,81,56,186,75
1562034648.701756,45,37,36,130,94,44,188,79
1562034648.71621,47,39,36,123,97,42,176,73
1562034648.739292,42,40,36,119,96,43,178,71
1562034648.761771,42,36,41,110,101,45,171,72
1562034648.78417,37,37,43,86,90,50,103,84
1562034648.799258,35,36,41,91,75,48,125,83
1562034648.821905,32,37,41,80,76,48,115,83
1562034648.844265,33,36,38,81,72,46,121,85
1562034648.859467,34,37,36,84,64,43,121,83
1562034648.88176,34,37,35,78,66,44,116,45
1562034648.904372,37,38,35,70,71,56,80,39
1562034648.919372,35,36,37,80,67,58,79,36
1562034648.941819,33,35,37,80,71,62,63,35
1562034648.964354,35,35,36,80,69,60,85,37
1562034648.979388,36,34,35,75,69,55,93,40
1562034649.001885,33,34,37,72,61,44,98,39
1562034649.024256,36,37,37,53,56,43,100,43
1562034649.039395,37,38,36,58,59,45,101,43
1562034649.062053,37,39,34,55,81,46,82,41
1562034649.084258,34,39,35,55,84,48,63,33
1562034649.09935,35,40,39,56,88,47,52,32
1562034649.121833,34,38,38,56,89,46,49,27
1562034649.144238,36,38,39,64,86,47,47,22
1562034649.15945,37,36,41,63,66,45,50,89
1562034649.181817,43,35,41,58,60,52,64,153
1562034649.204123,50,30,38,63,60,57,136,173
1562034649.218501,51,32,42,66,58,57,144,177
1562034649.241784,47,33,42,54,54,54,154,186
1562034649.26418,47,36,44,59,72,59,174,166
1562034649.278639,44,38,43,69,76,53,203,117
1562034649.301783,38,43,39,61,90,48,172,93
1562034649.332013,39,42,36,56,94,51,168,87
1562034649.338549,38,40,34,73,96,50,162,68
1562034649.361696,38,38,33,71,82,47,142,73
1562034649.384474,35,36,31,67,83,49,93,64
1562034649.398643,33,32,32,70,61,48,80,51
1562034649.4218,35,33,32,72,59,56,96,54
1562034649.4443,37,37,36,57,60,57,113,58
1562034649.459238,35,39,36,66,59,56,114,60
1562034649.481682,36,42,43,99,52,55,118,57
1562034649.503634,37,45,44,105,56,58,120,60
1562034649.526229,34,47,44,112,64,51,129,58
1562034649.542971,33,45,42,117,63,51,126,66
1562034649.563777,34,42,42,115,64,55,141,61
1562034649.58615,37,40,40,102,65,54,141,62
1562034649.602873,41,35,38,101,68,58,144,60
1562034649.623666,40,32,36,98,58,61,154,67
1562034649.645979,39,31,38,93,55,59,165,71
1562034649.662849,42,30,36,93,56,55,151,67
1562034649.683684,42,30,33,101,55,57,145,66
1562034649.706121,34,33,36,115,49,54,157,67
1562034649.722592,35,33,38,127,54,51,151,60
1562034649.743507,37,33,37,131,57,55,146,38
1562034649.766044,38,34,38,133,75,55,155,61
1562034649.782967,43,33,42,115,75,50,156,139
1562034649.803675,55,34,48,99,74,50,141,308
1562034649.826123,65,40,47,113,72,49,122,508
1562034649.842807,73,43,48,107,80,52,95,554
1562034649.863473,82,45,51,103,80,55,88,595
1562034649.886074,94,49,49,105,91,61,104,729
1562034649.902739,94,47,41,104,94,66,105,717
1562034649.923757,94,43,41,64,91,65,97,655
1562034649.946163,105,46,42,93,81,64,141,844
1562034649.962953,102,44,41,105,65,63,141,840
1562034649.983608,99,40,41,107,45,66,135,872
1562034650.013452,100,44,41,114,34,65,138,886
1562034650.022634,99,43,40,117,32,66,148,849
1562034650.045125,88,41,35,97,37,62,124,660
1562034650.073607,83,40,33,82,37,67,120,645
1562034650.083025,73,44,32,80,38,66,123,592
1562034650.103671,71,44,32,81,41,64,120,554
1562034650.126071,66,45,31,80,45,64,153,558
1562034650.142874,57,40,33,79,41,65,151,518
1562034650.163697,55,41,34,89,40,60,160,499
1562034650.19355,50,38,36,85,38,53,156,273
1562034650.202833,42,37,37,77,38,49,159,192
1562034650.223544,37,37,41,76,36,45,120,141
1562034650.246102,34,42,42,75,35,44,148,128
1562034650.262739,35,42,41,97,48,48,138,115
1562034650.283596,34,43,38,105,54,48,139,83
1562034650.306018,36,41,37,104,57,53,135,74
1562034650.322634,36,40,35,106,60,54,130,63
1562034650.343571,37,34,36,104,62,57,80,56
1562034650.366144,35,32,37,77,53,51,110,40
1562034650.38109,36,29,39,66,46,51,105,37
1562034650.403653,33,30,41,70,59,51,116,36
1562034650.426155,34,30,38,71,54,51,118,52
1562034650.448656,34,30,36,74,59,50,115,56
1562034650.471237,34,36,40,77,74,51,80,55
1562034650.486034,32,39,38,77,85,60,105,55
1562034650.501086,28,41,36,76,79,55,139,59
1562034650.523633,30,42,37,76,88,54,144,49
1562034650.546128,30,44,39,84,83,52,145,60
1562034650.561021,34,44,37,80,70,58,148,61
1562034650.583646,34,42,40,82,59,48,131,60
1562034650.606152,34,41,42,82,57,58,80,56
1562034650.621115,32,44,42,76,59,57,114,53
1562034650.643716,30,43,40,63,62,62,116,36
1562034650.666198,26,39,37,63,67,60,126,38
1562034650.68854,31,38,32,67,69,63,127,48
1562034650.703328,33,35,32,66,66,57,122,47
1562034650.726046,36,30,32,65,57,58,83,48
1562034650.748499,38,33,29,70,61,53,110,47
1562034650.763671,38,37,32,69,56,48,100,43
1562034650.787943,38,37,35,75,52,46,99,29
1562034650.808636,35,37,35,66,53,45,102,59
1562034650.823729,34,38,36,70,47,46,102,58
1562034650.846024,34,36,38,69,37,44,69,60
1562034650.876891,33,32,39,72,37,45,101,61
1562034650.883844,29,34,40,66,36,51,116,63
1562034650.906163,31,33,40,69,34,57,112,36
1562034650.937281,33,35,42,71,37,59,116,39
1562034650.943713,33,35,41,67,47,61,119,65
1562034650.966189,34,39,41,65,58,67,100,67
1562034650.988651,38,39,39,69,66,67,108,65
1562034651.003752,41,38,38,67,76,64,109,66
1562034651.026229,41,38,36,68,78,63,113,65
1562034651.048729,40,37,35,73,75,62,121,41
1562034651.063651,40,34,32,74,69,61,122,50
1562034651.094229,47,33,30,72,67,63,105,77
1562034651.108542,45,33,31,74,58,61,106,83
1562034651.123711,44,34,32,75,55,60,96,84
1562034651.146027,46,36,31,72,52,63,85,104
1562034651.168501,46,35,31,68,50,58,118,131
1562034651.183616,54,35,33,66,44,52,133,181
1562034651.206046,64,37,39,76,38,62,137,360
1562034651.228648,70,36,40,76,37,63,142,454
1562034651.243724,73,35,43,77,40,62,142,466
1562034651.266205,74,34,46,76,41,65,110,467
1562034651.288676,65,34,45,70,42,65,124,462
1562034651.303701,62,35,41,58,43,51,140,377
1562034651.326144,56,35,39,57,42,53,136,258
1562034651.348537,55,39,39,58,41,51,153,237
1562034651.363775,56,41,35,66,42,47,161,227
1562034651.386343,60,42,37,78,39,47,175,251
1562034651.408705,54,44,37,81,40,48,175,200
1562034651.42369,55,42,38,75,43,43,191,202
1562034651.446213,52,39,41,74,41,50,179,195
1562034651.468586,48,39,41,73,41,49,176,185
1562034651.491227,64,37,39,57,41,50,157,105
1562034651.506043,66,32,39,56,41,51,151,96
1562034651.536935,66,34,41,64,41,54,170,92
1562034651.544196,73,36,34,63,45,49,186,84
1562034651.566049,75,37,33,56,45,47,182,84
1562034651.588557,56,39,37,55,44,50,165,66
1562034651.603617,53,39,41,53,42,53,180,61
1562034651.628052,53,38,37,43,41,50,156,51
1562034651.648528,42,34,38,45,43,47,139,51
1562034651.671096,38,35,39,48,45,50,144,56
1562034651.686136,41,33,36,64,48,47,143,55
1562034651.708656,37,39,34,65,48,44,149,62
1562034651.731151,37,40,35,73,52,49,163,62
1562034651.746103,35,44,34,76,49,52,162,64
1562034651.768458,39,44,37,77,48,52,159,58
1562034651.790936,37,47,38,65,60,52,161,59
1562034651.806241,41,42,36,82,75,55,144,65
1562034651.828515,39,43,36,81,87,55,140,66
1562034651.859223,44,42,37,96,89,53,143,61
1562034651.866082,40,40,33,106,93,59,168,67
1562034651.888692,41,41,33,108,87,130,176,80
1562034651.911143,42,43,33,96,83,156,198,64
1562034651.925942,43,42,37,95,80,163,185,68
1562034651.956786,37,42,38,100,79,168,221,72
1562034651.971236,38,43,44,92,77,167,201,67
1562034651.986161,41,38,46,93,80,121,194,53
1562034652.017002,39,36,45,100,80,91,176,54
1562034652.031199,39,34,46,104,73,80,196,61
1562034652.046154,40,34,45,85,73,73,161,71
1562034652.068613,43,35,41,86,76,78,162,71
1562034652.091145,38,35,42,85,75,82,159,72
1562034652.106157,37,38,45,75,72,74,144,72
1562034652.128404,43,41,41,87,74,76,133,78
1562034652.151219,44,40,47,87,76,74,128,67
1562034652.166112,44,37,47,87,68,65,137,69
1562034652.188671,44,38,44,88,61,57,141,70
1562034652.211019,44,34,40,88,61,57,141,72
1562034652.226515,36,35,40,74,51,49,131,56
1562034652.248585,39,34,32,72,49,48,120,55
1562034652.271215,38,36,33,68,47,49,120,56
1562034652.28604,38,36,36,65,55,48,134,57
1562034652.308559,35,37,37,72,53,42,151,55
1562034652.331186,38,34,38,64,54,39,144,58
1562034652.354303,37,34,39,71,56,42,145,59
1562034652.368491,35,32,38,100,68,41,148,63
1562034652.392271,37,31,37,102,65,46,159,69
1562034652.406034,37,32,36,108,62,54,145,73
1562034652.43681,36,33,35,108,62,55,144,73
1562034652.451769,37,36,37,107,63,57,146,75
1562034652.466168,35,35,36,80,50,56,132,68
1562034652.488511,36,39,35,89,50,55,158,58
1562034652.511891,38,41,36,74,48,52,179,48
1562034652.526152,38,42,40,72,49,50,184,41
1562034652.54848,36,39,37,64,47,44,184,34
1562034652.5719,40,39,36,67,48,42,183,32
1562034652.594293,37,36,37,54,47,42,148,31
1562034652.608642,38,33,36,64,51,41,151,48
1562034652.631918,40,33,30,63,51,46,159,51
1562034652.654414,40,34,33,75,53,49,161,51
1562034652.668509,39,38,33,73,49,52,158,53
1562034652.691947,43,38,33,76,49,53,162,52
1562034652.714452,42,37,36,73,46,49,128,39
1562034652.728686,38,38,37,73,43,49,139,48
1562034652.751949,38,40,36,71,39,53,136,53
1562034652.774377,38,37,40,78,40,51,142,54
1562034652.788618,38,36,39,74,42,51,150,55
1562034652.819453,40,37,38,67,47,53,154,61
1562034652.834446,40,37,38,72,54,51,129,52
1562034652.849093,37,36,38,64,54,48,132,48
1562034652.879491,39,36,38,60,55,49,155,50
1562034652.894299,36,37,42,68,63,51,134,60
1562034652.908903,37,42,43,70,61,54,139,61
1562034652.939447,38,40,42,66,56,54,137,61
1562034652.954188,41,39,43,67,57,53,139,60
1562034652.969247,43,38,39,62,58,53,124,58
1562034652.99193,47,37,33,50,50,54,127,62
1562034653.01441,45,32,31,58,49,51,138,63
1562034653.02855,45,31,34,59,49,49,145,63
1562034653.051854,46,30,31,57,47,50,140,62
1562034653.07484,47,33,34,70,48,50,149,62
1562034653.088674,43,32,36,71,57,52,148,48
1562034653.112021,45,31,36,63,52,51,143,54
1562034653.134468,48,32,36,62,55,56,151,61
1562034653.148665,47,37,38,63,56,54,152,62
1562034653.171917,48,35,37,75,57,53,141,65
1562034653.194286,48,38,37,78,51,47,139,63
1562034653.208548,48,39,42,82,53,52,126,53
1562034653.231915,45,39,41,81,50,54,116,46
1562034653.254321,44,36,39,77,49,54,116,55
1562034653.268561,36,35,42,53,46,55,108,54
1562034653.291898,41,38,43,44,47,54,128,69
1562034653.314318,41,37,38,43,46,49,143,69
1562034653.32861,39,35,38,45,44,43,138,100
1562034653.351857,57,36,39,51,44,43,141,128
1562034653.374299,66,36,36,50,44,44,148,155
1562034653.388568,69,32,33,50,42,48,147,171
1562034653.411759,70,32,39,46,44,49,129,177
1562034653.434204,76,35,40,45,45,51,126,202
1562034653.448614,71,37,44,41,44,50,121,198
1562034653.47175,63,38,47,46,42,48,106,190
1562034653.494247,64,39,48,46,43,47,82,229
1562034653.524371,62,41,45,45,41,51,104,254
1562034653.531779,58,41,45,49,40,48,102,312
1562034653.554424,66,39,42,48,47,52,106,414
1562034653.57697,72,42,45,49,49,55,114,554
1562034653.591918,70,41,44,51,48,54,123,549
1562034653.614408,74,43,44,50,48,56,101,575
1562034653.636774,78,40,44,47,48,56,100,547
1562034653.651902,63,42,42,54,44,57,128,470
1562034653.674355,59,36,39,60,43,54,134,289
1562034653.69682,55,37,38,61,44,58,137,260
1562034653.711926,49,34,37,62,43,53,151,156
1562034653.734219,48,33,36,65,41,53,159,97
1562034653.756813,47,33,38,59,39,50,161,94
1562034653.771905,42,34,38,47,42,50,156,84
1562034653.794387,44,33,38,44,42,46,158,149
1562034653.816802,51,31,38,44,43,47,153,154
1562034653.839516,57,35,36,47,44,46,151,231
1562034653.854356,61,34,38,53,47,44,120,244
1562034653.876917,63,33,35,62,48,48,114,247
1562034653.899256,66,31,34,87,48,48,90,217
1562034653.914245,61,31,36,89,51,47,75,219
1562034653.936818,52,31,37,87,51,51,104,142
1562034653.959352,49,31,34,85,50,50,105,114
1562034653.9741,50,39,37,83,49,47,105,101
1562034653.996209,41,39,37,76,49,48,128,88
1562034654.01845,41,40,36,79,46,54,135,73
1562034654.033457,39,37,35,78,43,51,114,54
1562034654.056308,41,37,34,79,43,51,114,52
1562034654.070424,38,29,33,77,39,50,120,54
1562034654.093618,38,29,32,61,34,49,96,53
1562034654.116882,37,30,32,57,40,45,118,44
1562034654.131044,36,34,38,57,42,43,125,45
1562034654.154248,37,34,37,65,43,44,132,50
1562034654.176826,36,37,40,65,44,52,144,53
1562034654.191159,36,38,40,61,47,56,154,61
1562034654.214331,49,37,42,62,44,56,154,155
1562034654.237336,78,37,39,72,47,60,165,259
1562034654.251157,79,36,39,68,46,63,180,273
1562034654.274359,86,34,35,74,46,66,193,281
1562034654.296843,86,36,35,75,48,64,196,314
1562034654.311329,88,39,35,79,47,61,189,388
1562034654.334326,69,36,40,88,50,61,173,488
1562034654.357363,76,40,42,85,53,63,176,627
1562034654.371174,75,43,43,81,53,55,184,691
1562034654.394265,78,40,43,80,50,58,178,695
1562034654.416836,75,39,41,76,48,58,171,662
1562034654.431176,77,39,37,59,49,56,169,594
1562034654.454304,67,37,36,61,48,51,161,457
1562034654.484379,61,36,33,58,48,53,147,364
1562034654.515819,59,38,35,59,51,46,146,353
1562034654.517843,57,40,35,61,53,47,148,476
1562034654.536967,57,39,32,73,47,47,163,454
1562034654.559422,59,38,29,84,47,57,174,550
1562034654.574361,60,38,31,92,48,54,171,554
1562034654.596739,76,37,31,91,46,56,167,573
1562034654.619364,76,36,33,91,48,62,173,453
1562034654.634432,71,37,34,80,50,66,167,454
1562034654.656183,71,37,35,68,46,59,164,384
1562034654.678707,74,36,35,63,50,64,162,369
1562034654.695328,63,38,32,65,51,66,173,381
1562034654.716073,59,39,32,57,51,62,169,386
1562034654.738569,62,43,33,65,51,61,170,358
1562034654.755365,61,45,37,71,55,61,157,273
1562034654.776189,59,47,38,74,52,56,155,265
1562034654.798569,51,45,43,83,53,58,142,153
1562034654.815331,51,41,40,94,51,55,134,113
1562034654.836127,42,36,38,91,51,51,165,103
1562034654.858283,36,32,37,86,51,51,161,95
1562034654.88094,38,30,36,92,49,53,148,85
1562034654.896105,38,29,33,88,45,48,149,80
1562034654.918605,37,30,36,78,43,47,149,79
1562034654.935476,39,31,36,76,47,46,153,52
1562034654.956094,38,31,36,83,49,50,166,51
1562034654.980465,33,37,34,70,47,47,174,63
1562034654.995261,32,41,37,74,52,50,176,63
1562034655.015379,32,42,36,74,54,56,174,65
1562034655.037788,32,41,37,76,51,55,164,63
1562034655.054215,34,43,35,68,47,52,144,69
1562034655.075315,34,39,37,71,51,54,140,53
1562034655.097757,34,37,38,66,45,57,142,52
1562034655.114371,34,39,39,84,48,53,147,48
1562034655.135869,31,41,40,94,46,52,132,52
1562034655.158587,32,38,41,94,47,52,151,49
1562034655.175414,32,40,42,91,44,50,142,51
1562034655.196011,32,36,40,96,47,44,137,63
1562034655.218602,32,31,39,88,43,48,139,64
1562034655.235297,32,31,40,79,44,52,121,64
1562034655.256139,31,32,41,84,46,50,100,57
1562034655.278663,35,30,41,86,45,47,99,56
1562034655.295286,37,34,38,83,45,48,149,58
1562034655.316078,37,34,39,86,45,43,148,58
1562034655.338643,39,33,35,91,43,39,147,52
1562034655.355477,40,32,35,105,41,38,144,52
1562034655.376212,37,34,33,119,46,44,152,53
1562034655.398514,36,33,33,143,45,42,124,47
1562034655.421148,39,35,32,147,43,51,159,51
1562034655.437884,38,35,39,147,47,52,164,51
1562034655.458488,38,38,37,138,48,53,169,50
1562034655.481126,36,42,41,125,45,52,170,50
1562034655.503786,32,41,44,101,52,57,178,53
1562034655.518616,32,41,45,102,54,56,179,49
1562034655.541151,34,46,41,106,52,57,176,51
1562034655.55609,31,43,40,118,52,57,180,54
1562034655.578442,37,39,40,149,57,58,193,63
1562034655.601135,38,39,39,150,52,51,184,57
1562034655.616093,38,37,39,153,50,48,189,57
1562034655.638656,37,33,40,179,54,47,186,57
1562034655.661129,37,35,42,211,54,46,192,65
1562034655.676096,39,34,39,193,62,44,173,54
1562034655.69863,37,34,36,193,61,47,163,51
1562034655.72112,37,36,38,197,63,47,119,55
1562034655.736179,39,37,37,181,66,46,149,61
1562034655.75864,42,33,36,141,65,51,146,62
1562034655.781204,37,36,39,141,52,47,146,64
1562034655.796138,38,39,40,151,62,48,145,63
1562034655.818537,36,38,39,143,62,49,149,64
1562034655.841005,36,40,46,171,56,53,120,57
1562034655.856148,33,42,52,171,57,52,118,46
1562034655.87858,32,43,49,171,66,54,109,55
1562034655.902854,35,42,48,163,60,56,136,62
1562034655.916233,37,44,48,181,58,62,126,59
1562034655.938598,34,42,42,140,58,59,122,60
1562034655.962864,38,40,36,134,56,57,106,58
1562034655.976031,39,40,35,133,47,59,126,50
1562034655.998615,37,41,36,158,41,62,97,39
1562034656.022912,36,39,36,140,46,52,109,47
1562034656.036102,37,39,38,152,46,58,108,46
1562034656.058624,33,39,37,158,46,61,106,46
1562034656.081131,35,38,41,160,49,62,91,47
1562034656.096138,34,36,41,141,50,59,85,47
1562034656.118624,35,37,39,128,44,59,69,33
1562034656.14107,37,36,35,113,47,56,88,35
1562034656.156177,43,37,38,98,51,63,97,40
1562034656.180483,42,38,36,104,52,65,94,39
1562034656.200825,45,41,36,95,59,64,96,40
1562034656.223614,45,40,39,98,60,66,97,40
1562034656.238534,44,39,40,103,61,68,100,42
1562034656.261142,38,42,39,111,59,62,99,40
1562034656.27613,37,44,42,97,56,60,95,38
1562034656.298739,33,42,41,94,51,61,95,39
1562034656.32113,29,45,38,89,50,60,91,38
1562034656.343651,33,46,41,86,49,65,78,33
1562034656.366107,32,44,39,75,48,67,78,27
1562034656.3811,37,41,33,81,64,71,85,29
1562034656.403665,38,42,34,78,74,72,99,29
1562034656.426895,38,39,40,86,77,72,129,30
1562034656.441118,38,36,37,85,78,68,129,29
1562034656.463677,39,35,38,84,78,64,129,28
1562034656.486884,33,35,43,75,66,58,124,26
1562034656.501078,33,36,44,71,54,62,113,26
1562034656.523783,33,36,40,61,55,64,90,29
1562034656.546734,29,36,40,58,54,64,91,35
1562034656.56093,32,40,41,68,58,65,86,47
1562034656.583705,31,41,36,81,57,63,102,49
1562034656.598646,30,39,36,82,56,62,122,49
1562034656.621214,34,41,37,87,51,63,135,50
1562034656.643616,38,45,44,91,54,69,131,48
1562034656.658627,39,43,44,86,54,68,135,38
1562034656.68112,38,43,46,77,53,76,122,36
1562034656.703639,40,43,45,76,55,76,114,36
1562034656.718564,39,42,46,75,57,76,91,34
1562034656.741238,35,40,43,80,50,70,90,32
1562034656.763705,34,37,41,99,50,72,100,42
1562034656.778683,38,37,42,115,50,70,113,49
1562034656.801289,37,36,42,130,45,70,105,52
1562034656.823786,38,35,39,160,50,69,105,51
1562034656.838626,38,35,38,160,56,68,127,53
1562034656.860954,38,37,37,155,54,82,130,50
1562034656.891902,39,37,38,148,55,78,120,53
1562034656.898694,37,38,40,134,55,73,118,50
1562034656.921136,36,39,46,93,52,74,114,51
1562034656.951842,37,38,49,85,49,78,88,51
1562034656.958407,36,39,51,71,49,66,63,49
1562034656.981243,32,41,55,86,60,73,75,45
1562034657.011735,31,42,56,87,76,78,114,49
1562034657.018221,34,45,51,90,80,78,120,47
1562034657.040455,36,45,51,89,81,78,134,111
1562034657.062912,37,43,50,91,83,76,155,123
1562034657.077724,38,42,45,68,74,70,153,122
1562034657.100425,41,39,44,63,61,65,129,122
1562034657.122991,39,36,44,58,58,65,132,122
1562034657.138415,41,34,43,62,53,86,230,77
1562034657.160978,45,34,42,62,50,102,243,59
1562034657.183585,43,32,38,58,52,103,243,55
1562034657.198622,42,32,41,65,49,111,252,58
1562034657.221354,41,28,41,62,42,111,249,60
1562034657.243863,38,30,41,53,57,99,166,50
1562034657.25859,33,31,40,47,55,83,129,46
1562034657.281172,39,34,41,48,56,83,141,57
1562034657.303843,50,35,38,49,56,77,123,53
1562034657.326906,59,41,41,63,61,80,137,83
1562034657.349363,81,44,47,83,49,76,160,95
1562034657.363799,86,48,51,84,57,76,157,101
1562034657.386668,85,51,55,87,59,88,145,121
1562034657.409375,103,59,55,94,61,97,164,320
1562034657.423644,130,62,53,91,58,99,161,350
1562034657.446889,126,62,54,84,60,121,139,422
1562034657.461053,125,58,55,87,63,148,165,437
1562034657.483509,139,61,52,98,63,145,175,559
1562034657.506839,134,63,52,98,63,150,189,488
1562034657.521092,119,65,53,112,69,155,186,486
1562034657.543695,119,65,54,118,71,139,187,525
1562034657.566057,122,68,50,120,64,116,182,525
1562034657.580247,106,64,55,115,70,443,215,395
1562034657.602736,95,53,55,121,89,800,220,394
1562034657.625915,87,43,53,122,85,813,287,374
1562034657.640273,78,39,45,115,89,839,356,212
1562034657.663315,80,39,57,132,97,844,441,225
1562034657.686584,98,39,56,144,107,752,518,239
1562034657.701122,97,44,56,159,93,355,535,217
1562034657.723658,99,61,61,170,98,550,516,215
1562034657.746828,100,64,67,188,93,622,512,221
1562034657.761081,100,65,66,181,88,648,523,213
1562034657.78365,86,72,66,186,84,631,485,221
1562034657.806806,89,70,64,168,91,642,494,271
1562034657.821154,89,58,65,162,89,572,507,262
1562034657.843739,103,69,69,156,94,548,482,305
1562034657.866933,133,75,66,156,92,536,424,408
1562034657.881176,141,73,65,151,84,536,388,411
1562034657.903685,148,79,67,155,75,530,349,420
1562034657.934259,153,81,66,152,84,424,343,435
1562034657.94106,146,74,61,150,78,297,348,430
1562034657.964143,122,67,55,142,75,283,367,389
1562034657.986777,115,67,53,140,73,270,357,443
1562034658.001421,103,59,52,134,73,251,352,423
1562034658.02308,105,55,59,121,61,245,335,440
1562034658.045926,125,50,54,107,75,240,309,469
1562034658.060198,127,46,52,110,78,211,243,427
1562034658.082795,130,42,57,91,78,200,235,371
1562034658.105927,132,45,57,92,80,196,234,375
1562034658.120254,137,48,45,90,89,225,260,346
1562034658.143053,119,45,51,87,75,236,268,277
1562034658.166553,113,53,61,126,77,250,258,263
1562034658.180941,117,50,60,126,78,244,248,256
1562034658.203456,119,46,58,125,78,238,245,232
1562034658.226652,97,43,60,126,72,193,207,242
1562034658.249298,98,46,80,152,77,169,195,245
1562034658.263653,97,38,72,120,71,127,201,226
1562034658.286958,85,39,72,125,67,140,188,202
1562034658.30932,89,41,73,128,78,143,200,187
1562034658.32351,92,44,78,136,72,143,206,167
1562034658.346851,89,48,74,113,68,149,237,154
1562034658.369799,87,49,75,110,70,146,244,204
1562034658.383619,85,49,76,106,72,136,259,207
1562034658.406904,76,47,78,100,55,136,246,223
1562034658.429347,68,48,73,96,56,134,257,239
1562034658.444423,65,48,55,86,58,113,215,239
1562034658.466818,61,45,55,91,56,109,198,198
1562034658.489353,66,54,54,100,60,129,191,190
1562034658.504212,72,59,50,105,60,125,194,216
1562034658.526792,71,56,47,101,58,121,160,205
1562034658.549523,73,53,47,100,59,126,178,205
1562034658.564323,68,54,46,101,76,125,188,207
1562034658.586845,71,48,43,91,70,96,180,211
1562034658.609313,63,43,48,82,72,95,196,181
1562034658.624275,70,44,51,73,81,96,204,168
1562034658.646869,71,43,44,79,80,85,195,161
1562034658.676858,73,42,44,72,68,95,177,220
1562034658.683436,69,42,55,72,77,102,173,222
1562034658.706754,73,42,51,80,82,101,164,219
1562034658.729271,71,41,53,83,75,101,155,220
1562034658.743738,67,41,53,74,75,101,154,222
1562034658.766822,78,42,52,76,74,106,161,208
1562034658.789238,81,38,42,74,68,109,161,202
1562034658.803736,77,41,40,69,61,110,140,197
1562034658.82681,81,40,38,66,77,109,152,212
1562034658.849272,86,42,44,77,77,107,142,215
1562034658.863731,81,43,50,75,74,105,159,184
1562034658.886953,78,44,52,82,82,101,160,191
1562034658.909393,82,42,52,80,83,98,157,191
1562034658.923844,74,45,50,80,65,93,139,183
1562034658.946868,74,47,47,70,68,111,147,177
1562034658.969423,68,46,43,76,68,107,127,171
1562034658.984109,68,44,41,66,52,104,122,188
1562034659.006513,60,44,46,63,51,114,164,184
1562034659.029198,69,39,47,60,64,116,184,184
1562034659.04341,65,33,45,72,59,107,186,180
1562034659.066855,73,34,44,70,59,101,177,191
1562034659.089355,71,33,44,69,64,107,190,171
1562034659.103666,77,32,40,71,68,102,153,189
1562034659.126875,75,37,41,77,60,107,134,179
1562034659.149306,78,37,40,69,59,110,146,184
1562034659.163652,69,44,39,69,56,112,150,177
1562034659.186688,68,45,39,68,60,104,141,168
1562034659.20916,74,46,47,70,59,114,151,145
1562034659.231866,73,46,51,94,61,106,151,156
1562034659.246799,72,47,53,96,62,107,155,177
1562034659.269138,72,41,53,95,68,104,155,156
1562034659.291859,75,43,58,106,63,110,164,169
1562034659.306638,68,43,50,108,68,92,161,166
1562034659.3294,71,43,47,83,66,93,157,176
1562034659.35192,67,42,44,78,72,82,143,150
1562034659.366829,72,40,46,77,78,90,145,171
1562034659.389301,72,42,38,70,79,88,131,194
1562034659.411499,72,41,45,69,74,91,134,218
1562034659.426744,68,35,42,77,78,105,159,202
1562034659.44985,74,35,43,78,83,105,161,209
1562034659.479333,72,35,45,78,73,99,156,226
1562034659.486933,67,35,57,89,72,96,159,216
1562034659.509781,68,40,54,95,80,95,168,231
1562034659.531837,68,45,55,90,80,93,145,230
1562034659.546338,69,45,60,102,74,101,136,228
1562034659.569725,72,47,59,109,76,102,155,226
1562034659.59194,82,47,50,97,78,101,153,225
1562034659.606078,82,43,50,92,76,113,128,186
1562034659.629366,95,45,53,104,72,104,119,241
1562034659.651989,93,47,51,94,67,101,124,239
1562034659.665537,90,44,52,87,65,97,114,213
1562034659.689356,90,42,49,82,64,97,110,254
1562034659.711953,89,40,47,78,55,84,128,261
1562034659.726203,73,36,46,66,57,80,131,215
1562034659.749319,80,34,45,75,56,80,135,258
1562034659.771933,80,33,42,74,55,97,128,275
1562034659.786001,72,34,44,76,53,98,136,232
1562034659.810368,78,37,47,79,52,97,130,230
1562034659.831204,81,34,48,75,51,109,135,240
1562034659.853652,70,35,46,62,53,114,136,203
1562034659.870437,67,38,46,58,59,104,137,181
1562034659.891195,67,39,50,58,66,106,135,176
1562034659.913658,60,42,48,55,66,122,130,173
1562034659.930331,55,43,44,49,69,117,140,196
1562034659.951193,56,42,42,50,66,109,143,198
1562034659.975147,64,41,42,53,62,107,147,199
1562034659.990428,66,39,39,55,58,107,149,201
1562034660.011056,66,38,37,56,59,95,153,217
1562034660.033653,66,41,38,59,54,96,147,190
1562034660.050266,73,42,39,60,55,99,147,173
1562034660.070891,72,44,41,61,54,108,137,175
1562034660.093446,69,42,41,56,54,105,130,194
1562034660.110145,67,40,42,56,53,99,147,192
1562034660.131141,71,37,46,63,53,88,142,188
1562034660.153588,65,34,46,67,57,81,137,197
1562034660.170327,58,32,45,66,59,67,142,187
1562034660.190989,61,36,45,74,65,71,141,168
1562034660.213461,66,35,45,77,64,70,124,185
1562034660.23042,69,35,41,74,63,68,123,196
1562034660.251168,73,36,41,74,61,76,138,203
1562034660.273609,75,36,45,81,70,90,136,209
1562034660.290291,79,39,42,74,65,89,135,227
1562034660.311069,75,37,43,72,64,89,142,197
1562034660.333554,69,37,45,68,65,92,148,192
1562034660.350455,65,40,44,76,69,93,124,180
1562034660.371299,65,41,42,70,59,86,125,177
1562034660.393639,61,40,44,71,56,85,126,136
1562034660.410286,69,44,48,75,56,95,134,190
1562034660.431243,66,46,46,80,54,98,124,176
1562034660.461167,66,43,45,67,48,91,122,174
1562034660.470393,67,42,43,67,49,101,145,176
1562034660.498685,72,40,40,65,48,101,144,214
1562034660.513812,65,41,37,60,50,96,134,161
1562034660.536179,68,37,38,59,53,100,140,171
1562034660.551226,70,37,38,59,53,105,153,169
1562034660.573575,71,39,42,73,48,89,127,184
1562034660.58849,63,37,43,70,52,95,131,157
1562034660.61125,61,35,44,70,50,101,128,160
1562034660.633674,58,38,47,72,48,98,126,161
1562034660.648452,61,40,46,73,57,98,111,165
1562034660.671029,66,42,45,64,60,106,135,150
1562034660.693657,70,44,45,66,56,97,148,159
1562034660.708452,71,45,42,67,62,86,141,161
1562034660.731185,77,46,39,60,65,84,135,175
1562034660.75376,72,49,43,64,58,77,135,184
1562034660.76858,66,44,44,61,60,76,117,186
1562034660.791252,58,44,44,65,62,77,96,172
1562034660.813642,81,46,44,68,56,80,118,173
1562034660.828582,81,43,44,68,49,84,145,209
1562034660.858484,85,39,44,69,53,81,154,203
1562034660.87352,102,41,41,67,48,81,150,203
1562034660.888564,113,43,43,63,46,90,169,302
1562034660.911232,98,40,45,63,52,92,154,308
1562034660.93368,103,42,47,71,53,92,142,279
1562034660.956154,101,42,44,71,47,91,132,287
1562034660.971201,87,41,44,71,63,86,140,300
1562034660.993559,80,36,40,70,70,83,114,201
1562034661.016115,82,36,42,66,67,79,133,186
1562034661.031242,92,35,41,67,69,78,182,218
1562034661.055515,96,41,43,72,71,86,187,203
1562034661.07624,92,40,45,75,63,86,190,183
1562034661.091226,91,41,48,77,58,94,191,183
1562034661.113517,89,43,47,90,55,102,189,203
1562034661.13626,70,43,44,83,57,99,130,163
1562034661.150755,62,37,42,81,58,93,122,172
1562034661.173714,72,37,38,78,53,92,116,186
1562034661.196133,77,38,36,76,55,82,117,186
1562034661.211187,76,34,31,62,61,71,116,167
1562034661.23363,75,35,35,62,57,69,121,171
1562034661.256182,87,35,38,59,54,81,138,171
1562034661.271074,76,38,42,65,54,86,131,150
1562034661.295425,70,39,44,65,48,97,134,172
1562034661.316247,70,39,51,59,44,95,134,212
1562034661.331171,76,36,48,58,43,94,134,214
1562034661.353641,70,36,46,56,46,91,128,210
1562034661.376094,76,34,48,51,44,96,137,220
1562034661.398718,74,34,48,48,48,91,152,199
1562034661.413635,80,34,48,54,48,101,164,174
1562034661.436055,77,37,48,58,49,112,165,175
1562034661.45118,72,42,52,73,48,122,166,169
1562034661.481768,80,49,53,82,50,126,164,162
1562034661.496266,90,48,55,88,50,121,144,174
1562034661.511175,86,52,53,87,54,117,119,171
1562034661.541784,84,50,58,87,54,107,125,167
1562034661.556133,82,49,55,73,54,97,110,174
1562034661.571045,73,44,55,64,52,80,100,172
1562034661.593563,57,43,55,61,59,90,115,176
1562034661.616279,55,38,50,58,54,87,139,170
1562034661.631081,56,38,47,59,54,91,133,168
1562034661.653508,61,37,49,65,56,86,145,195
1562034661.676048,71,37,48,67,67,88,152,230
1562034661.690972,72,38,43,71,61,81,141,235
1562034661.713652,71,39,50,80,70,86,131,237
1562034661.736248,70,42,54,84,70,85,133,235
1562034661.758572,67,43,59,91,68,92,119,216
1562034661.773629,63,44,59,91,75,103,118,193
1562034661.796141,72,44,63,91,75,111,126,174
1562034661.810953,80,42,58,86,68,120,116,182
1562034661.833445,81,39,53,81,73,122,118,194
1562034661.85601,83,37,44,66,75,118,141,195
1562034661.871061,76,33,46,64,63,112,170,182
1562034661.893496,69,32,47,56,65,102,169,177
1562034661.924278,67,34,48,59,66,85,175,207
1562034661.938593,81,34,49,62,63,88,172,209
1562034661.955015,80,36,50,64,59,95,160,210
1562034661.976247,81,39,49,66,53,97,128,204
1562034661.991063,88,38,46,80,51,101,139,229
1562034662.013574,88,38,45,83,47,108,146,200
1562034662.036036,82,41,42,78,44,112,155,217
1562034662.066904,80,40,42,78,46,121,157,211
1562034662.073545,78,36,45,75,46,116,157,209
1562034662.096143,72,36,45,62,44,115,159,180
1562034662.118502,64,39,43,60,48,113,146,171
1562034662.133601,56,38,47,58,48,102,149,132
1562034662.156128,60,43,48,60,48,90,161,141
1562034662.178588,74,44,46,61,60,86,157,190
1562034662.203596,80,47,43,59,62,86,143,203
1562034662.21619,82,44,45,58,71,81,140,199
1562034662.238617,81,44,50,59,75,85,127,206
1562034662.253656,81,43,52,56,77,77,105,202
1562034662.276232,76,46,52,51,71,79,126,186
1562034662.299161,68,44,52,52,69,72,128,183
1562034662.313464,69,47,53,45,58,81,132,173
1562034662.336433,84,46,45,46,57,82,134,175
1562034662.358677,81,45,40,48,57,84,140,176
1562034662.373592,79,42,34,54,58,85,129,158
1562034662.396165,77,43,41,61,60,98,133,156
1562034662.418609,81,40,43,72,62,94,123,172
1562034662.433758,65,39,45,70,62,99,130,158
1562034662.456152,65,38,46,69,62,101,138,154
1562034662.479402,63,36,50,68,60,99,142,154
1562034662.501723,65,39,49,66,63,88,138,185
1562034662.516124,58,40,47,59,62,101,182,175
1562034662.539538,58,41,47,65,60,89,175,175
1562034662.553558,63,43,47,70,65,86,166,182
1562034662.576014,61,44,46,81,71,91,176,170
1562034662.599306,58,43,40,84,65,94,176,124
1562034662.613549,59,43,40,82,66,89,164,135
1562034662.636034,63,44,41,81,66,107,185,160
1562034662.659386,58,41,42,88,61,123,189,147
1562034662.673592,62,42,42,83,52,119,179,148
1562034662.696181,67,43,49,75,56,120,185,179
1562034662.719474,68,42,50,75,51,120,167,179
1562034662.733519,65,39,48,73,49,109,141,172
1562034662.756339,73,39,48,62,56,89,148,182
1562034662.779535,73,36,47,61,66,112,148,185
1562034662.793603,73,32,42,65,66,108,139,165
1562034662.81616,78,32,39,67,70,110,126,151
1562034662.839381,80,35,43,74,73,108,173,169
1562034662.853613,75,38,42,76,70,120,174,177
1562034662.876181,75,40,41,72,71,116,169,184
1562034662.899369,82,39,43,73,69,123,176,197
1562034662.921818,88,38,42,81,66,113,181,199
1562034662.936148,89,37,37,71,63,120,158,167
1562034662.959359,91,33,36,68,66,114,144,161
1562034662.982034,91,36,43,70,60,108,151,165
1562034662.996227,85,38,42,71,63,105,139,145
1562034663.026888,75,41,46,63,67,109,146,149
1562034663.041851,71,42,49,66,71,107,125,178
1562034663.056221,69,42,50,73,62,101,120,169
1562034663.079586,68,38,45,71,58,93,119,162
1562034663.101793,71,36,42,64,56,94,124,174
1562034663.116148,69,32,40,63,51,86,105,181
1562034663.139347,68,31,41,69,48,82,106,161
1562034663.161765,66,33,42,64,50,104,143,163
1562034663.176192,67,32,41,68,55,104,142,159
1562034663.199426,58,34,41,67,52,101,142,144
1562034663.221835,61,36,44,71,53,129,152,185
1562034663.236205,66,41,45,67,50,132,154,186
1562034663.259191,73,41,48,67,51,120,122,186
1562034663.281777,67,42,48,66,52,124,129,180
1562034663.296091,70,41,52,69,58,129,134,200
1562034663.319414,72,46,50,81,61,119,150,184
1562034663.341904,71,44,49,76,61,119,157,182
1562034663.356214,72,45,48,81,92,126,157,179
1562034663.379329,80,48,51,81,91,123,161,224
1562034663.401996,80,48,51,84,92,121,155,206
1562034663.425104,81,44,53,69,93,116,142,174
1562034663.43943,81,46,52,69,92,120,147,178
1562034663.461863,77,45,50,62,61,112,147,181
1562034663.484248,82,43,48,59,56,114,141,123
1562034663.499385,81,44,44,59,55,108,147,118
1562034663.521965,76,42,39,60,51,102,137,131
1562034663.536198,71,37,36,63,57,101,132,141
1562034663.559416,68,37,40,69,60,103,148,142
1562034663.581673,66,35,42,70,62,101,147,139
1562034663.596277,65,31,41,69,65,102,136,160
1562034663.619382,65,32,40,83,72,101,145,164
1562034663.641821,69,33,41,83,71,100,180,173
1562034663.656027,74,29,41,80,68,96,176,173
1562034663.67946,65,32,38,82,69,108,172,180
1562034663.701876,64,36,40,83,67,106,180,172
1562034663.716217,65,37,42,73,62,104,187,182
1562034663.739398,67,36,42,73,58,101,150,168
1562034663.761859,74,36,37,71,58,98,149,173
1562034663.776266,80,39,45,73,59,81,142,168
1562034663.799417,83,37,43,68,58,107,143,162
1562034663.821823,80,36,42,62,54,113,126,148
1562034663.836261,77,35,41,65,54,111,151,139
1562034663.859442,72,37,42,69,52,109,152,152
1562034663.881836,66,36,36,64,51,112,159,154
1562034663.8966,75,37,38,72,53,90,154,174
1562034663.919455,85,41,45,92,53,81,169,227
1562034663.949372,87,43,47,90,50,77,155,225
1562034663.964392,83,41,49,86,52,84,156,215
1562034663.979381,84,41,50,90,50,106,156,253
1562034664.009337,78,43,56,84,43,105,164,268
1562034664.024274,70,39,51,69,46,108,167,239
1562034664.039825,88,38,52,77,53,108,154,252
1562034664.061894,90,37,51,84,54,101,159,256
1562034664.084246,97,37,50,82,54,77,168,241
1562034664.099323,103,34,44,86,52,89,173,230
1562034664.121825,102,38,43,94,54,86,164,245
1562034664.144289,88,43,43,92,50,96,176,263
1562034664.174498,88,47,45,85,46,100,161,276
1562034664.181685,85,46,44,82,44,105,147,293
1562034664.204225,78,45,45,82,46,95,131,278
1562034664.219334,83,41,45,72,37,95,128,293
1562034664.241654,86,36,42,68,37,87,107,316
1562034664.264228,83,33,45,76,40,85,108,306
1562034664.279209,77,36,44,76,42,87,110,277
1562034664.301848,73,37,44,75,45,81,116,326
1562034664.324361,72,37,48,74,49,81,118,328
1562034664.338618,81,39,51,75,48,81,128,292
1562034664.361867,88,37,46,67,48,99,127,324
1562034664.384233,97,36,47,68,51,87,124,360
1562034664.399015,99,36,46,68,48,90,119,323
1562034664.422322,100,37,45,65,44,98,108,287
1562034664.444231,93,38,41,65,48,99,104,298
1562034664.458674,86,38,41,66,47,83,103,264
1562034664.481861,72,38,41,67,50,90,103,208
1562034664.504321,71,40,39,67,49,96,97,199
1562034664.518603,96,43,41,80,54,88,96,220
1562034664.541761,91,42,42,77,55,103,107,210
1562034664.564803,89,43,43,78,55,100,100,199
1562034664.578578,92,42,43,75,48,95,98,219
1562034664.60172,91,41,43,75,49,89,96,215
1562034664.624314,75,37,40,72,43,88,96,229
1562034664.638629,78,38,40,72,40,75,96,221
1562034664.661877,81,38,42,70,41,81,99,235
1562034664.68408,90,38,42,71,44,81,102,247
1562034664.698627,101,37,44,66,44,85,116,280
1562034664.721852,95,36,44,50,50,81,109,291
1562034664.744239,95,38,46,50,51,86,89,286
1562034664.758818,104,39,45,72,56,88,92,292
1562034664.781824,99,41,48,100,64,92,107,340
1562034664.804263,93,39,45,102,64,87,100,338
1562034664.818563,101,42,46,107,66,90,106,354
1562034664.841758,107,41,47,111,68,81,109,365
1562034664.864334,112,44,49,107,65,84,123,391
1562034664.88734,110,42,52,84,62,86,120,359
1562034664.901893,112,45,54,81,65,94,118,391
1562034664.924425,103,45,52,76,62,96,111,361
1562034664.946714,99,42,50,77,58,90,108,355
1562034664.96171,81,37,47,68,60,83,93,322
1562034664.983689,91,38,41,66,53,78,78,296
1562034665.006071,97,32,36,64,56,71,81,285
1562034665.022799,97,30,36,70,57,64,85,278
1562034665.043688,99,30,42,65,59,77,100,334
1562034665.06617,102,35,41,62,61,76,96,339
1562034665.090476,94,35,42,65,62,78,96,336
1562034665.103725,85,37,41,64,57,79,99,317
1562034665.1262,79,43,44,62,53,87,108,320
1562034665.14296,74,43,42,68,50,84,105,282
1562034665.163543,74,42,43,71,51,87,105,356
1562034665.186145,72,41,41,73,54,83,102,354
1562034665.208544,72,41,43,72,54,92,90,336
1562034665.223704,69,37,44,70,54,92,87,325
1562034665.246167,75,40,42,65,56,98,77,313
1562034665.262907,72,41,40,58,52,101,76,226
1562034665.283721,76,42,40,51,58,114,80,275
1562034665.30616,90,42,40,59,55,108,83,285
1562034665.322868,93,40,39,54,57,106,72,316
1562034665.343713,91,37,36,55,55,104,75,326
1562034665.366188,100,34,39,60,61,100,81,331
1562034665.382912,95,32,41,61,55,92,82,310
1562034665.403716,82,32,38,54,57,89,89,314
1562034665.428048,84,32,41,58,58,85,90,297
1562034665.442852,81,36,41,55,58,97,104,275
1562034665.463644,71,38,41,53,56,117,114,253
1562034665.486312,74,38,42,52,54,117,120,255
1562034665.502912,93,43,51,82,57,125,113,315
1562034665.525527,92,45,48,85,56,124,110,296
1562034665.562543,101,42,50,84,58,110,96,322
1562034665.564673,105,40,52,89,55,99,86,389
1562034665.583677,101,40,52,94,55,97,72,374
1562034665.613698,79,36,47,74,53,87,71,319
1562034665.622825,86,32,47,74,54,104,75,380
1562034665.643689,78,35,45,76,56,104,79,391
1562034665.666122,75,36,48,82,54,99,72,327
1562034665.682826,88,37,49,80,53,95,73,356
1562034665.703777,100,39,47,77,50,101,74,393
1562034665.7261,98,41,47,75,54,99,144,356
1562034665.742691,92,42,48,81,53,114,145,374
1562034665.763596,91,38,42,74,52,121,151,417
1562034665.786141,90,39,39,74,53,123,155,412
1562034665.808639,84,35,43,74,54,119,169,386
1562034665.82361,78,38,42,74,46,107,115,371
1562034665.846183,83,35,42,64,57,90,108,321
1562034665.86853,96,39,41,64,57,88,108,284
1562034665.88379,86,38,40,59,58,89,104,259
1562034665.906402,103,40,36,62,57,86,88,268
1562034665.928771,109,37,34,60,63,85,89,300
1562034665.951428,110,35,37,60,54,82,105,283
1562034665.966151,102,34,41,59,55,77,132,280
1562034665.988462,103,32,44,62,58,75,131,281
1562034666.011064,93,34,47,59,62,95,132,261
1562034666.026093,85,35,50,61,57,98,132,221
1562034666.048404,82,37,46,63,57,103,138,274
1562034666.063617,83,42,45,67,53,106,116,303
1562034666.086072,85,43,42,63,47,110,116,306
1562034666.108483,74,41,40,62,57,95,114,285
1562034666.123521,84,42,38,71,54,103,132,347
1562034666.146201,93,43,38,70,51,113,120,346
1562034666.168437,91,37,37,59,55,107,108,313
1562034666.183509,92,40,38,63,56,105,106,332
1562034666.206147,92,39,41,66,43,103,103,345
1562034666.2286,81,35,45,54,44,95,75,336
1562034666.243656,72,33,46,60,48,84,69,321
1562034666.265879,74,33,44,67,49,85,83,372
1562034666.288363,71,32,46,66,48,83,84,356
1562034666.30363,70,34,45,73,62,87,84,350
1562034666.325973,70,39,43,82,65,84,85,321
1562034666.348551,66,42,44,75,63,82,82,309
1562034666.363724,76,45,49,76,63,77,79,259
1562034666.386146,76,43,52,77,66,82,87,279
1562034666.408614,77,45,51,71,56,88,87,270
1562034666.423866,103,44,48,58,56,89,90,298
1562034666.446232,106,43,48,61,58,89,89,300
1562034666.468592,103,42,44,61,56,88,85,283
1562034666.483627,111,42,36,69,53,88,82,257
1562034666.50803,112,37,34,71,52,77,79,261
1562034666.528561,92,37,34,72,48,79,83,214
1562034666.543744,90,38,32,72,49,87,83,289
1562034666.568093,90,37,38,80,49,89,92,354
1562034666.588547,80,39,41,71,53,89,87,361
1562034666.605258,79,39,39,66,53,93,92,365
1562034666.626076,88,38,38,71,53,96,95,368
1562034666.648665,84,37,40,75,49,92,101,340
1562034666.663776,81,38,36,58,50,89,90,275
1562034666.686049,82,38,38,59,49,83,96,278
1562034666.708551,95,43,41,62,51,81,90,311
1562034666.723717,85,43,44,59,53,80,90,318
1562034666.745982,103,45,46,53,53,71,85,307
1562034666.768522,100,46,48,56,51,71,84,321
1562034666.79116,104,47,47,56,49,85,87,335
1562034666.806162,91,43,51,61,49,93,92,305
1562034666.828646,96,42,52,59,43,97,87,298
1562034666.85106,80,38,50,63,44,98,91,291
1562034666.866161,84,39,48,64,43,98,96,289
1562034666.888695,86,36,46,66,41,86,86,277
1562034666.911202,91,35,43,57,39,75,90,291
1562034666.92613,89,33,39,57,44,82,97,294
1562034666.94861,85,32,38,52,46,81,96,273
1562034666.971021,88,28,38,45,44,83,88,268
1562034666.986056,80,27,38,43,45,86,86,267
1562034667.008461,80,32,37,49,43,93,82,239
1562034667.03103,81,35,38,50,42,86,89,237
1562034667.046043,86,36,36,54,40,84,93,302
1562034667.068676,82,36,39,56,42,81,95,296
1562034667.091208,83,38,38,54,43,78,98,303
1562034667.106115,88,34,41,50,43,70,101,315
1562034667.128511,81,34,41,56,43,77,96,334
1562034667.151059,81,36,44,57,43,77,89,292
1562034667.167818,95,35,45,66,41,85,101,391
1562034667.188567,93,35,49,71,41,94,109,372
1562034667.211171,88,38,46,75,41,94,115,374
1562034667.226187,90,38,44,74,38,84,110,346
1562034667.248666,88,37,43,74,38,87,107,343
1562034667.271028,67,37,43,66,41,83,99,211
1562034667.286107,79,40,46,75,41,89,93,284
1562034667.308517,77,38,48,74,38,88,75,287
1562034667.331178,73,37,49,71,39,84,69,298
1562034667.346128,73,35,49,71,45,88,74,294
1562034667.368483,101,38,50,84,47,87,75,394
1562034667.391136,91,35,43,71,50,74,75,352
1562034667.406141,90,37,41,74,53,88,75,380
1562034667.436752,95,38,43,73,53,109,89,427
1562034667.451051,103,40,43,80,50,106,104,458
1562034667.46783,75,38,41,69,50,111,111,386
1562034667.488673,77,39,41,72,46,113,108,396
1562034667.511178,77,38,41,68,46,104,124,384
1562034667.525925,72,42,42,68,51,87,120,320
1562034667.556911,67,43,42,58,52,91,104,276
1562034667.57121,74,43,40,55,49,87,94,303
1562034667.588005,77,43,42,52,48,87,112,284
1562034667.616933,77,42,41,55,47,102,101,305
1562034667.631055,80,36,35,55,46,101,101,324
1562034667.645331,90,33,34,51,41,96,102,378
1562034667.667742,90,34,35,51,41,99,104,376
1562034667.690211,82,35,34,51,43,101,106,376
1562034667.713398,83,32,40,52,43,87,100,333
1562034667.728103,83,34,42,53,47,86,99,331
1562034667.750712,69,34,41,58,50,115,127,256
1562034667.774309,66,32,39,62,49,114,128,234
1562034667.788369,64,29,42,59,51,111,127,231
1562034667.811253,64,35,39,56,49,112,131,250
1562034667.834337,79,35,41,55,45,117,148,224
1562034667.848612,77,36,43,57,46,102,127,214
1562034667.871265,76,38,44,52,49,109,123,255
1562034667.894358,93,40,43,54,57,111,114,292
1562034667.908998,96,38,46,51,60,110,112,278
1562034667.931155,85,38,46,51,58,101,85,303
1562034667.954738,83,37,44,45,55,83,78,311
1562034667.968585,82,36,43,46,52,75,76,260
1562034667.991036,67,35,41,50,44,68,64,234
1562034668.021768,70,32,38,59,42,67,61,277
1562034668.02849,69,34,40,62,39,67,68,258
1562034668.051147,77,33,41,61,39,67,69,271
1562034668.074714,78,34,42,64,40,66,66,275
1562034668.088547,78,32,45,63,40,79,78,290
1562034668.110984,83,33,44,56,37,86,100,249
1562034668.141057,87,30,40,57,39,90,96,277
1562034668.147781,84,34,39,60,42,96,101,276
1562034668.170208,90,35,39,58,41,91,105,301
1562034668.193428,88,35,38,60,40,85,98,282
1562034668.207759,87,36,40,75,41,84,92,298
1562034668.230262,84,38,40,73,41,84,96,262
1562034668.253684,81,36,41,74,42,76,89,252
1562034668.276654,72,37,42,76,49,78,85,248
1562034668.291119,74,43,38,91,51,83,86,326
1562034668.314383,68,44,38,84,49,80,68,362
1562034668.32866,78,42,38,84,49,86,61,384
1562034668.351235,78,42,38,82,48,98,82,393
1562034668.374334,82,41,40,79,40,96,98,378
1562034668.388556,92,39,46,57,38,88,99,313
1562034668.411695,88,35,45,51,40,90,106,281
1562034668.434236,75,35,46,51,42,84,112,276
1562034668.448602,78,34,46,52,41,73,107,277
1562034668.471074,84,31,48,58,44,86,96,275
1562034668.494306,79,32,42,57,43,83,98,279
1562034668.50858,78,34,43,63,43,83,91,262
1562034668.531056,82,40,41,64,42,84,92,303
1562034668.554385,92,41,42,72,42,82,84,300
1562034668.568691,99,42,37,68,46,79,89,299
1562034668.591162,99,39,41,76,57,87,87,346
1562034668.614335,109,38,42,76,62,91,94,353
1562034668.628479,107,36,43,72,63,87,86,306
1562034668.651837,104,37,44,67,72,89,87,304
1562034668.674339,89,43,49,71,71,102,104,312
1562034668.696823,84,45,45,65,62,102,119,265
1562034668.711837,75,46,47,61,60,97,110,236
1562034668.734331,81,43,46,59,57,99,112,229
1562034668.756784,80,41,44,62,49,99,115,237
1562034668.77177,88,38,37,59,49,80,96,214
1562034668.79431,86,36,40,58,51,70,77,208
1562034668.816677,83,34,35,60,48,84,80,222
1562034668.831837,84,32,36,60,48,80,82,316
1562034668.854268,79,36,34,53,53,82,77,339
1562034668.876791,77,35,36,56,55,87,76,381
1562034668.891669,76,34,32,56,54,87,76,373
1562034668.914295,79,36,32,61,55,89,91,383
1562034668.94426,74,38,34,71,55,97,91,310
1562034668.951774,83,35,39,78,52,103,97,341
1562034668.974172,83,32,40,77,47,105,96,300
1562034669.00419,86,35,40,78,62,107,99,292
1562034669.011851,84,37,46,84,65,102,87,355
1562034669.034283,90,41,46,88,67,120,88,388
1562034669.056719,92,42,44,86,67,123,88,360
1562034669.071021,97,45,44,91,66,129,91,370
1562034669.101632,104,45,46,97,54,133,99,395
1562034669.116659,107,42,45,86,58,139,106,336
1562034669.131086,98,39,43,77,61,123,110,290
1562034669.154413,87,39,43,77,64,119,107,250
1562034669.176868,89,38,45,79,66,113,129,271
1562034669.191044,80,38,43,77,69,115,129,273
1562034669.214185,79,38,40,79,63,97,124,270
1562034669.236642,94,37,41,79,57,100,121,318
1562034669.251049,97,35,42,82,51,95,120,323
1562034669.274142,98,31,41,78,48,87,92,317
1562034669.29644,100,38,43,73,47,88,81,292
1562034669.311008,98,38,43,70,46,94,82,283
1562034669.341814,86,40,48,70,46,86,78,249
1562034669.356576,88,41,47,68,47,93,79,305
1562034669.371238,79,46,47,65,55,101,83,298
1562034669.394163,81,42,47,67,54,102,94,362
1562034669.416814,85,45,47,75,53,98,91,367
1562034669.439358,88,48,44,90,54,107,100,422
1562034669.454289,87,51,41,87,58,105,103,408
1562034669.476802,91,46,41,89,55,99,101,415
1562034669.491053,96,46,41,91,49,97,94,368
1562034669.514386,95,43,47,95,53,103,97,378
1562034669.536802,98,40,44,80,54,100,98,339
1562034669.551186,102,33,45,79,52,94,95,429
1562034669.574287,94,35,45,74,49,91,104,443
1562034669.596759,84,40,52,68,54,87,102,444
1562034669.619364,82,39,48,60,53,84,116,437
1562034669.634427,84,39,49,57,53,76,111,420
1562034669.656826,87,43,53,56,56,78,112,292
1562034669.679399,104,46,54,75,66,84,119,341
1562034669.69437,110,41,47,90,64,79,131,378
1562034669.716801,110,42,45,92,64,73,114,376
1562034669.739292,111,38,46,92,68,93,119,388
1562034669.754377,106,37,46,97,72,95,115,408
1562034669.776819,89,36,47,89,65,94,117,352
1562034669.799364,93,36,46,70,69,99,110,337
1562034669.814214,92,39,48,66,72,104,129,327
1562034669.836901,81,40,48,74,67,95,128,307
1562034669.859383,91,39,47,71,58,117,143,282
1562034669.874374,97,37,46,65,61,120,132,251
1562034669.896824,90,36,47,67,59,122,128,219
1562034669.919398,110,35,45,62,56,131,114,248
1562034669.934273,118,36,43,51,67,129,112,240
1562034669.96439,105,37,44,41,72,108,100,232
1562034669.979411,107,35,43,44,72,100,101,261
1562034669.994347,107,35,44,53,72,95,101,253
1562034670.024332,96,34,48,54,72,78,95,259
1562034670.039338,96,32,49,60,64,71,107,287
1562034670.053708,97,33,45,62,63,70,110,293
1562034670.084243,93,35,47,64,56,95,111,275
1562034670.09936,99,33,46,58,56,94,113,278
1562034670.113503,88,33,39,60,57,95,116,268
1562034670.136731,81,36,40,54,62,99,104,252
1562034670.158622,81,38,46,55,62,101,106,258
1562034670.181092,92,38,50,57,61,98,118,305
1562034670.198369,81,39,51,61,59,109,125,331
1562034670.218377,90,38,55,64,55,107,124,353
1562034670.241084,103,42,54,65,48,107,125,360
1562034670.257616,113,38,49,68,45,108,121,395
1562034670.27849,107,41,44,66,44,93,103,379
1562034670.295399,118,41,46,63,43,81,89,376
1562034670.317672,119,45,42,60,48,85,95,381
1562034670.338519,111,44,45,65,48,91,93,412
1562034670.35536,103,46,47,61,46,88,87,374
1562034670.385269,108,45,51,63,45,116,112,367
1562034670.398451,112,48,50,74,49,136,118,452
1562034670.422927,103,45,50,75,49,137,112,426
1562034670.437806,105,42,49,73,47,131,111,417
1562034670.458701,124,41,46,73,50,135,113,465
1562034670.475438,123,41,41,71,53,113,89,462
1562034670.497921,111,37,42,65,47,90,86,368
1562034670.518648,113,37,44,69,58,91,87,401
1562034670.548839,108,38,46,69,65,100,88,367
1562034670.557834,91,39,46,69,73,91,80,299
1562034670.578664,78,35,47,66,72,92,76,280
1562034670.601128,79,35,47,68,75,87,89,430
1562034670.61796,78,36,46,75,67,81,102,396
1562034670.638533,82,36,47,74,63,74,100,395
1562034670.661107,75,33,49,73,50,75,104,412
1562034670.676167,77,37,48,84,53,76,109,415
1562034670.698731,84,40,48,83,54,74,96,256
1562034670.721145,80,39,49,69,52,72,80,250
1562034670.737808,91,36,48,72,53,79,84,271
1562034670.758584,87,38,49,72,60,83,78,239
1562034670.781101,89,37,49,63,62,86,107,270
1562034670.796407,79,33,46,55,59,100,114,267
1562034670.8186,79,35,44,55,60,103,112,267
1562034670.841057,80,40,47,61,65,114,114,265
1562034670.856047,86,39,46,69,62,111,122,314
1562034670.878506,86,38,49,72,59,117,108,308
1562034670.909419,95,40,51,75,58,112,102,293
1562034670.916161,107,40,56,80,59,109,104,296
1562034670.938544,95,36,56,76,62,113,121,283
1562034670.961009,91,39,58,71,65,121,117,226
1562034670.978008,97,40,54,71,65,116,105,219
1562034670.998641,91,40,51,74,64,109,103,275
1562034671.021017,82,40,47,74,66,120,106,286
1562034671.036207,85,41,47,79,63,111,82,293
1562034671.066168,89,38,44,82,64,105,84,301
1562034671.081122,80,35,45,84,64,102,85,308
1562034671.096063,82,36,46,84,67,107,92,268
1562034671.118487,86,36,46,87,63,104,94,300
1562034671.14109,92,33,36,79,54,94,93,315
1562034671.15618,104,36,38,81,44,101,86,346
1562034671.178536,114,41,47,83,52,100,94,335
1562034671.200981,118,40,47,83,47,107,106,344
1562034671.216177,122,41,49,81,54,105,101,326
1562034671.238347,114,41,50,82,56,104,110,305
1562034671.261016,103,43,51,91,61,96,113,340
1562034671.276082,102,44,50,91,55,100,110,338
1562034671.298544,98,48,52,93,57,90,92,413
1562034671.321176,89,48,52,88,52,81,90,400
1562034671.336033,101,48,51,89,53,81,79,403
1562034671.358601,105,44,49,79,56,83,85,389
1562034671.380989,96,42,45,77,56,90,86,391
1562034671.396718,105,39,42,72,55,97,90,313
1562034671.418519,106,42,42,74,54,102,96,349
1562034671.442927,104,41,44,79,53,100,97,362
1562034671.455889,104,44,44,75,50,97,90,339
1562034671.478491,117,45,43,73,49,100,89,362
1562034671.502732,111,45,49,82,49,98,82,363
1562034671.532294,112,40,46,80,52,94,76,336
1562034671.538664,105,41,44,74,51,113,73,386
1562034671.560934,116,46,47,76,49,118,74,431
1562034671.583592,105,46,47,76,50,107,68,429
1562034671.598622,103,45,45,66,59,102,86,416
1562034671.621097,101,46,48,68,57,104,88,411
1562034671.643517,108,49,47,78,60,90,87,378
1562034671.658271,96,46,45,80,69,97,87,356
1562034671.681031,95,46,45,76,67,97,88,326
1562034671.712157,92,48,43,78,57,98,74,319
1562034671.720444,97,47,41,77,60,96,73,345
1562034671.741216,91,45,41,68,62,90,72,324
1562034671.763727,84,40,44,65,55,74,77,265
1562034671.778515,83,42,43,74,55,74,80,285
1562034671.80105,82,40,40,77,58,81,92,313
1562034671.823602,73,41,44,80,58,86,88,284
1562034671.838599,76,40,43,87,56,84,92,278
1562034671.862913,70,41,38,88,57,87,86,286
1562034671.8919,74,36,37,84,56,88,80,265
1562034671.898546,81,40,39,93,56,108,74,311
1562034671.921004,90,42,40,99,64,108,80,314
1562034671.94348,90,42,44,95,66,112,77,337
1562034671.96617,91,39,45,92,65,108,75,329
1562034671.981145,92,41,49,91,68,109,82,331
1562034672.003725,85,40,52,78,72,81,88,296
1562034672.026172,80,38,48,64,66,90,99,294
1562034672.041079,83,43,46,65,60,98,107,311
1562034672.063706,96,44,46,65,67,100,110,328
1562034672.080336,102,42,41,62,64,104,110,337
1562034672.101092,107,38,37,60,62,112,105,311
1562034672.123486,110,37,38,61,61,102,100,327
1562034672.138407,112,33,37,52,59,96,92,347
1562034672.160965,107,34,37,51,47,104,93,353
1562034672.19188,94,35,37,58,46,96,104,349
1562034672.198647,91,36,38,68,40,94,100,406
1562034672.222899,100,36,37,68,41,94,96,388
1562034672.251882,96,34,37,75,47,102,98,375
1562034672.266368,100,32,43,81,49,98,109,396
1562034672.281175,118,32,47,79,52,97,95,424
1562034672.303511,115,37,47,72,60,95,99,401
1562034672.318619,107,36,49,71,59,96,100,408
1562034672.341116,120,36,47,73,58,84,106,389
1562034672.363698,116,37,44,66,65,84,96,350
1562034672.378733,104,44,41,60,67,87,95,309
1562034672.401193,126,41,39,62,62,83,95,295
1562034672.439463,122,45,42,83,62,83,91,326
1562034672.446207,108,46,42,81,63,79,87,306
1562034672.471181,106,47,43,81,55,73,82,302
1562034672.491904,103,42,41,82,49,75,86,297
1562034672.506099,77,44,48,81,48,71,76,283
1562034672.529189,101,43,43,59,49,76,87,259
1562034672.551948,106,44,43,55,50,103,85,295
1562034672.566067,111,46,45,70,50,112,83,280
1562034672.581069,122,44,46,75,60,112,91,281
1562034672.603773,124,40,38,78,60,113,90,272
1562034672.626172,102,38,40,80,61,109,80,271
1562034672.641092,100,36,39,78,61,94,76,278
1562034672.663746,93,32,36,67,63,86,78,291
1562034672.686322,76,32,37,70,56,89,80,304
1562034672.70107,78,34,37,70,58,104,84,296
1562034672.723752,77,37,39,72,56,106,89,269
1562034672.74684,67,39,39,75,54,116,105,236
1562034672.761171,66,40,46,75,64,134,115,276
1562034672.783653,81,45,48,75,73,144,114,288
1562034672.80682,75,47,50,72,73,135,112,282
1562034672.821143,74,46,49,71,77,142,122,336
1562034672.843667,80,48,52,75,79,131,110,347
1562034672.866844,97,48,48,74,75,119,108,317
1562034672.88105,91,47,45,68,65,109,101,292
1562034672.903757,103,47,45,71,69,131,118,351
1562034672.92692,110,47,45,69,72,125,106,313
1562034672.949185,112,42,44,65,69,124,112,281
1562034672.963618,101,43,40,71,65,121,109,308
1562034672.986733,97,41,40,73,69,119,105,318
1562034673.016863,87,39,44,72,66,106,86,253
1562034673.023695,79,37,43,75,57,103,87,245
1562034673.046915,76,38,42,74,57,98,81,322
1562034673.061144,71,34,44,69,65,110,79,304
1562034673.083955,71,32,43,65,64,121,95,302
1562034673.106935,69,35,42,60,66,119,102,394
1562034673.121266,72,35,42,56,75,115,98,396
1562034673.143643,81,38,41,55,86,116,101,409
1562034673.166809,80,45,45,51,84,104,96,445
1562034673.181141,85,45,44,54,80,90,90,451
1562034673.203604,99,42,43,59,79,80,84,404
1562034673.226819,97,43,44,63,71,87,88,433
1562034673.249355,98,41,45,77,58,104,94,379
1562034673.2641,102,37,41,90,54,103,97,333
1562034673.2869,99,37,40,90,60,101,95,331
1562034673.301243,87,36,38,84,60,111,103,304
1562034673.323706,90,36,39,84,63,113,109,256
1562034673.346912,83,35,41,74,67,105,105,253
1562034673.369273,84,34,39,73,69,103,108,292
1562034673.383721,92,34,38,72,66,101,104,291
1562034673.407609,109,34,41,73,66,95,104,335
1562034673.429063,107,32,42,71,64,87,111,345
1562034673.443635,116,33,42,76,64,106,115,365
1562034673.474373,121,35,42,65,67,111,110,350
1562034673.505016,114,33,44,63,67,111,108,340
1562034673.507052,104,36,42,65,71,127,100,316
1562034673.52668,109,38,37,68,80,135,91,328
1562034673.556727,110,40,37,78,79,122,79,322
1562034673.571794,102,41,50,75,77,122,79,330
1562034673.586768,100,46,53,84,79,123,84,362
1562034673.609272,95,51,52,87,83,106,107,377
1562034673.62362,95,50,54,86,75,97,98,377
1562034673.646842,93,48,53,72,84,90,98,367
1562034673.669393,95,50,45,72,82,82,101,352
1562034673.683697,96,44,39,64,78,89,100,321
1562034673.706857,97,39,42,61,69,98,94,301
1562034673.729244,90,40,42,69,74,106,95,307
1562034673.743606,75,38,44,88,64,108,96,315
1562034673.766839,82,34,40,96,66,115,98,312
1562034673.78922,83,35,47,95,72,113,105,355
1562034673.803705,95,32,47,97,79,104,92,354
1562034673.826848,107,36,53,94,80,96,102,331
1562034673.849412,122,39,52,75,79,104,113,331
1562034673.863738,119,38,53,64,82,109,113,333
1562034673.886867,127,40,51,65,83,110,103,286
1562034673.909345,124,39,48,65,77,112,98,263
1562034673.923728,112,40,43,57,69,111,84,259
1562034673.946721,93,40,45,63,66,110,83,236
1562034673.96933,94,41,52,64,64,104,80,216
1562034673.983699,105,40,51,65,60,109,79,219
1562034674.006855,94,42,52,60,59,106,83,203
1562034674.029354,97,40,51,58,62,109,87,215
1562034674.04365,103,41,50,58,57,100,82,246
1562034674.067418,96,43,46,51,58,96,81,260
1562034674.089318,71,43,42,54,56,86,83,300
1562034674.104161,75,44,44,64,60,85,82,331
1562034674.127603,79,41,43,69,59,100,96,350
1562034674.149337,78,38,40,69,65,107,106,337
1562034674.163737,86,35,36,72,59,111,105,350
1562034674.186769,93,34,38,73,59,118,105,320
1562034674.208931,104,36,43,68,56,124,105,341
1562034674.22362,100,36,43,70,54,110,90,368
1562034674.24726,98,36,52,72,50,104,73,347
1562034674.269524,101,39,54,76,50,99,82,349
1562034674.283627,97,43,54,70,54,92,107,360
1562034674.307541,85,41,47,70,53,93,112,341
1562034674.329662,94,46,48,70,54,116,125,405
1562034674.351912,97,47,42,79,57,128,125,433
1562034674.366833,91,44,37,80,60,130,122,437
1562034674.38933,92,44,38,95,65,140,102,463
1562034674.411704,94,42,41,101,66,134,98,458
1562034674.43422,87,39,39,99,62,116,89,357
1562034674.44932,97,38,44,101,60,116,100,362
1562034674.471801,95,38,45,98,63,119,98,351
1562034674.494281,91,36,44,88,55,108,93,311
1562034674.509356,99,41,45,81,55,104,101,381
1562034674.531847,101,45,46,79,56,105,97,393
1562034674.554299,85,45,40,66,71,89,85,384
1562034674.576789,94,46,40,66,72,85,88,398
1562034674.591897,97,45,48,78,73,90,100,416
1562034674.606713,90,41,47,77,69,98,92,361
1562034674.629292,90,37,46,80,72,96,85,378
1562034674.651868,112,39,48,76,60,98,87,395
1562034674.666765,103,44,51,83,55,106,88,373
1562034674.689465,102,44,48,69,55,102,75,352
1562034674.711928,99,43,46,66,59,96,75,329
1562034674.726607,106,43,48,64,55,95,77,367
1562034674.749359,88,42,47,71,53,97,123,332
1562034674.771702,99,38,44,68,52,86,125,331
1562034674.786267,104,41,41,67,50,94,127,324
1562034674.809315,108,41,45,69,48,98,129,355
1562034674.831931,105,42,42,70,49,106,137,275
1562034674.846137,101,40,42,81,50,101,92,261
1562034674.869304,95,39,43,90,58,114,87,297
1562034674.89174,90,37,42,119,64,106,86,317
1562034674.906279,83,39,40,125,68,101,82,282
1562034674.929324,77,40,42,155,71,96,71,302
1562034674.959344,91,42,44,177,78,97,75,350
1562034674.966192,85,41,46,200,79,81,75,315
1562034674.989357,85,39,45,190,77,74,71,293
1562034675.019196,85,37,45,189,71,73,68,302
1562034675.025881,92,33,45,168,68,76,60,330
1562034675.050733,87,32,41,161,61,76,51,278
1562034675.079312,92,33,35,134,56,78,42,285
1562034675.086059,86,36,37,171,64,81,42,276
1562034675.109435,93,38,35,185,69,92,49,360
1562034675.139405,82,39,38,187,70,88,51,334
1562034675.146096,73,38,38,181,68,93,54,341
1562034675.169386,72,37,37,183,67,88,53,326
1562034675.191718,74,35,35,145,58,86,52,339
1562034675.206443,68,34,37,125,54,73,44,282
1562034675.229332,77,38,44,119,54,72,45,302
1562034675.251778,77,36,48,114,53,63,50,297
1562034675.274346,72,37,51,101,48,80,51,302
1562034675.289295,77,38,50,103,50,87,61,398
1562034675.311987,84,37,50,153,55,91,59,377
1562034675.333567,76,34,43,155,57,87,57,370
1562034675.350118,84,34,45,155,62,88,51,393
1562034675.371096,98,35,41,157,62,77,57,460
1562034675.393654,93,35,44,166,62,69,46,383
1562034675.410276,86,38,48,121,63,78,52,438
1562034675.431176,83,38,47,124,65,78,50,429
1562034675.453734,81,41,43,105,59,74,50,406
1562034675.470369,70,41,43,96,60,69,45,347
1562034675.491209,75,45,48,88,59,68,45,333
1562034675.515943,77,44,47,89,53,67,40,319
1562034675.546261,81,41,45,84,49,72,49,307
1562034675.551184,74,39,47,105,50,75,57,352
1562034675.573638,67,36,47,103,50,75,57,335
1562034675.590373,64,36,42,95,50,73,58,355
1562034675.611143,66,33,40,95,49,71,63,318
1562034675.633638,71,34,42,93,51,83,59,336
1562034675.650285,74,35,37,77,47,82,51,294
1562034675.671157,76,38,38,75,47,93,55,304
1562034675.693729,75,37,37,91,50,102,56,297
1562034675.710429,79,37,38,87,54,98,50,281
1562034675.731011,72,38,37,93,64,89,48,269
1562034675.761051,72,39,43,86,67,84,49,279
1562034675.77034,76,37,44,85,68,80,45,299
1562034675.791096,80,37,47,61,69,72,42,279
1562034675.81364,69,43,45,58,72,65,41,271
1562034675.830421,70,44,53,54,58,58,40,313
1562034675.853028,74,45,53,53,56,67,48,336
1562034675.873601,77,47,53,52,59,58,44,312
1562034675.890391,71,45,50,51,56,56,46,319
1562034675.910999,73,43,50,55,50,63,45,308
1562034675.950146,71,39,42,49,51,63,48,270
1562034675.952369,74,37,39,58,55,60,47,274
1562034675.972876,69,35,35,55,49,64,46,264
