1562024435.589164,45,36,31,25,32,20,22,50
1562024435.611315,45,37,30,25,33,21,22,40
1562024435.628228,44,33,29,25,40,23,22,38
1562024435.649079,42,33,30,26,39,21,24,37
1562024435.671461,43,32,30,27,39,22,22,32
1562024435.688346,42,29,27,26,39,23,20,34
1562024435.708953,40,31,27,26,39,23,19,24
1562024435.731505,38,35,26,25,37,23,21,33
1562024435.748524,43,34,25,25,38,23,20,33
1562024435.768937,40,35,29,24,36,22,22,36
1562024435.791039,47,37,30,24,34,25,24,34
1562024435.807198,52,38,31,24,37,25,23,34
1562024435.827991,55,33,31,25,35,24,24,25
1562024435.850526,53,36,31,25,37,24,22,27
1562024435.867898,50,35,33,25,37,26,24,24
1562024435.889736,45,37,33,26,39,22,23,32
1562024435.912856,37,34,35,28,49,23,25,38
1562024435.933876,36,34,34,25,49,23,24,39
1562024435.948908,38,37,31,24,50,21,24,39
1562024435.971463,44,39,28,26,50,19,26,40
1562024435.986424,54,36,27,25,50,19,30,33
1562024436.008837,52,37,25,21,39,17,30,26
1562024436.031491,53,37,25,23,38,16,30,36
1562024436.046272,54,31,25,24,35,17,32,37
1562024436.069181,49,28,25,23,36,17,28,36
1562024436.091415,57,34,27,22,34,17,23,37
1562024436.106462,62,35,28,21,31,15,21,37
1562024436.128888,60,36,29,21,31,18,22,27
1562024436.151304,56,38,27,25,35,21,20,25
1562024436.166767,58,40,27,28,40,23,23,31
1562024436.188846,52,36,27,28,40,23,22,39
1562024436.213111,50,36,26,29,40,24,22,39
1562024436.233978,50,35,24,28,39,25,22,39
1562024436.249027,52,32,27,25,37,23,24,39
1562024436.271434,55,33,27,19,29,20,23,35
1562024436.286504,49,34,24,21,31,20,23,25
1562024436.308755,48,33,29,24,40,19,23,33
1562024436.331355,49,32,29,24,41,17,24,37
1562024436.353985,49,33,28,24,41,16,22,36
1562024436.368857,48,34,29,26,42,19,23,36
1562024436.399654,49,36,30,25,42,21,23,36
1562024436.422177,51,36,28,20,35,21,25,29
1562024436.428839,52,35,32,22,35,22,23,24
1562024436.451415,54,34,31,24,35,22,25,33
1562024436.474032,70,34,29,23,35,22,24,33
1562024436.496411,68,38,27,25,36,22,24,33
1562024436.511536,76,38,27,25,35,23,23,34
1562024436.533918,77,38,23,28,42,23,24,35
1562024436.556496,78,39,24,27,43,24,21,29
1562024436.572982,63,37,31,29,43,22,21,27
1562024436.593867,69,30,29,27,39,21,21,27
1562024436.616446,60,33,28,27,42,20,21,32
1562024436.631452,56,35,28,25,37,18,20,31
1562024436.653956,53,35,30,26,36,19,21,30
1562024436.676392,51,33,22,24,36,19,20,30
1562024436.691343,41,34,27,26,37,20,18,29
1562024436.713943,42,32,27,28,34,20,19,30
1562024436.736682,43,32,29,28,31,21,23,47
1562024436.751573,44,31,26,26,30,22,23,48
1562024436.774204,56,37,26,26,31,21,23,50
1562024436.796272,56,37,25,25,33,21,24,50
1562024436.811362,56,41,35,25,37,22,24,47
1562024436.833953,55,39,36,25,39,20,20,30
1562024436.856537,61,40,36,26,40,19,20,37
1562024436.879421,56,40,36,26,40,21,22,36
1562024436.893842,55,39,35,28,42,19,22,36
1562024436.916381,54,37,25,26,44,19,20,36
1562024436.939652,55,38,23,26,44,21,22,36
1562024436.953837,48,37,25,26,43,20,22,25
1562024436.976512,46,37,29,25,41,20,25,31
1562024437.000107,46,35,31,25,37,21,26,32
1562024437.022197,44,35,29,22,34,19,27,31
1562024437.036406,42,35,32,21,35,18,26,34
1562024437.059559,46,34,30,23,33,19,25,33
1562024437.073994,61,37,35,25,43,21,24,26
1562024437.096554,64,41,34,25,42,21,22,43
1562024437.127321,65,40,35,26,41,21,22,43
1562024437.133953,66,40,34,29,47,24,23,42
1562024437.156544,66,43,34,26,46,22,23,44
1562024437.179399,48,36,26,27,36,21,20,44
1562024437.193896,42,36,30,25,41,21,21,25
1562024437.216357,41,37,32,26,41,21,19,32
1562024437.239511,47,38,30,22,42,20,19,33
1562024437.253898,53,37,30,23,43,22,21,33
1562024437.276411,58,36,28,22,45,21,20,33
1562024437.299499,60,34,24,25,42,23,23,33
1562024437.313854,61,35,27,24,40,26,25,26
1562024437.336499,64,34,29,24,32,25,24,40
1562024437.359475,56,33,31,26,32,24,23,41
1562024437.373885,50,34,32,25,38,24,22,41
1562024437.396313,52,33,34,23,41,22,18,41
1562024437.419655,54,34,31,23,42,19,19,42
1562024437.433819,45,33,31,24,47,17,22,28
1562024437.456354,44,33,30,22,50,17,22,24
1562024437.479602,44,32,29,23,47,18,23,33
1562024437.493961,44,36,28,23,45,19,25,36
1562024437.516495,44,32,30,22,48,20,24,35
1562024437.539668,43,33,27,21,43,22,21,36
1562024437.554092,42,33,29,21,40,21,21,37
1562024437.576836,51,43,28,22,38,20,22,28
1562024437.59995,56,42,28,20,37,20,21,24
1562024437.613829,54,46,26,21,36,19,21,26
1562024437.63628,53,46,29,22,36,18,23,32
1562024437.659653,56,47,27,23,41,19,23,32
1562024437.673916,51,45,29,24,42,19,23,33
1562024437.696459,42,44,29,24,42,21,26,33
1562024437.71957,47,40,29,23,40,21,25,31
1562024437.733894,49,41,30,24,41,20,26,24
1562024437.756271,56,43,30,24,38,20,26,34
1562024437.779441,53,40,29,22,39,20,27,34
1562024437.802203,52,36,28,23,39,20,23,34
1562024437.816377,48,41,30,25,41,21,24,34
1562024437.839616,50,42,28,26,39,22,25,35
1562024437.862207,43,40,29,26,39,23,24,24
1562024437.876484,49,38,30,29,36,24,22,24
1562024437.899612,50,39,30,29,46,24,23,23
1562024437.922197,51,39,27,26,44,23,24,22
1562024437.936499,49,39,29,24,47,24,19,22
1562024437.959581,54,39,29,24,47,23,19,27
1562024437.981999,54,38,28,22,46,22,20,28
1562024437.996526,53,37,29,21,43,22,20,32
1562024438.019426,52,33,29,24,43,24,19,32
1562024438.042176,50,31,31,23,42,23,22,32
1562024438.056379,46,28,31,23,43,23,23,28
1562024438.087026,41,28,33,25,45,24,22,25
1562024438.109666,45,29,33,24,39,22,21,19
1562024438.117007,53,30,34,23,39,19,22,23
1562024438.139562,54,28,29,23,39,22,24,27
1562024438.162,51,33,33,24,34,22,23,27
1562024438.177127,53,40,30,24,32,21,23,26
1562024438.199629,55,40,32,24,30,22,23,31
1562024438.222094,48,38,29,23,27,23,23,30
1562024438.236406,47,40,30,25,28,20,19,26
1562024438.259499,50,44,28,26,30,20,21,26
1562024438.282113,47,39,27,22,34,20,22,32
1562024438.296541,40,39,26,24,35,18,23,28
1562024438.319638,40,40,27,27,36,21,23,31
1562024438.342267,40,39,27,27,33,21,22,30
1562024438.364523,34,38,30,27,34,21,21,37
1562024438.379653,31,35,31,28,29,22,20,35
1562024438.402289,36,37,33,27,29,21,19,34
1562024438.416513,36,36,32,27,30,19,20,33
1562024438.43955,40,39,31,24,34,20,26,38
1562024438.462367,40,35,28,24,35,22,26,30
1562024438.476411,45,35,28,24,38,22,26,28
1562024438.499579,46,34,31,26,49,21,26,30
1562024438.52236,46,35,31,24,52,21,25,29
1562024438.536258,52,31,30,25,54,20,20,24
1562024438.560061,55,31,31,24,53,18,20,29
1562024438.582071,53,31,31,27,55,18,20,30
1562024438.596423,49,30,27,27,45,20,20,29
1562024438.619717,56,31,28,28,41,19,20,28
1562024438.64181,49,31,28,28,34,19,20,28
1562024438.664265,52,33,31,32,36,19,20,22
1562024438.686683,50,35,30,29,34,17,22,21
1562024438.709056,50,34,30,27,35,16,22,22
1562024438.724264,40,34,31,25,35,18,20,23
1562024438.739136,51,42,31,25,46,20,21,23
1562024438.761631,46,36,25,21,45,20,22,22
1562024438.784231,46,38,28,22,45,20,21,27
1562024438.799043,46,38,27,26,53,21,21,26
1562024438.821981,77,44,28,27,52,21,23,38
1562024438.844569,69,38,32,27,46,19,22,38
1562024438.859433,71,42,36,26,43,19,22,38
1562024438.882132,69,38,34,27,45,20,21,35
1562024438.904714,73,40,36,28,40,19,20,36
1562024438.91959,53,39,35,28,43,19,21,21
1562024438.942193,54,39,38,30,41,19,20,22
1562024438.964527,57,35,35,33,42,19,21,21
1562024438.979384,57,34,35,34,41,19,21,21
1562024439.002508,52,33,34,32,41,19,23,19
1562024439.02414,40,25,34,36,46,18,23,20
1562024439.039322,38,24,33,35,47,18,23,19
1562024439.061594,29,24,33,34,50,18,22,19
1562024439.084018,31,26,32,32,51,18,22,19
1562024439.10677,34,29,37,40,58,20,21,18
1562024439.122334,34,31,36,37,60,21,21,20
1562024439.14405,33,30,31,37,59,20,21,21
1562024439.159041,38,29,34,38,59,21,21,21
1562024439.181684,39,32,38,39,62,22,21,24
1562024439.204412,36,28,32,31,54,20,21,24
1562024439.218711,35,28,35,42,49,20,21,21
1562024439.242157,37,27,36,43,53,20,18,22
1562024439.265086,31,30,33,41,50,20,19,22
1562024439.287118,29,28,35,42,46,19,18,20
1562024439.30224,28,28,35,42,45,19,18,20
1562024439.324387,27,26,32,44,52,20,18,20
1562024439.338685,24,29,33,46,51,21,18,19
1562024439.361354,23,27,36,52,53,22,20,19
1562024439.382999,21,26,32,60,51,23,20,19
1562024439.405501,21,27,36,60,49,23,20,18
1562024439.422014,20,25,35,56,42,21,19,18
1562024439.443392,19,23,38,57,62,21,23,18
1562024439.465855,19,26,43,61,62,22,22,18
1562024439.482353,18,27,42,54,63,22,22,18
1562024439.504765,17,27,47,59,67,21,21,18
1562024439.525881,18,31,52,57,63,21,21,18
1562024439.542239,18,31,50,60,56,20,20,20
1562024439.564924,18,28,44,57,57,18,19,20
1562024439.585942,19,27,43,62,57,19,20,19
1562024439.602442,21,26,35,64,59,21,20,21
1562024439.623455,22,22,28,82,72,22,20,21
1562024439.645932,23,25,34,82,75,23,18,19
1562024439.662373,24,25,34,81,75,23,19,19
1562024439.684849,24,26,34,78,78,22,19,20
1562024439.707479,22,25,39,75,77,23,20,18
1562024439.729846,22,25,44,59,70,22,20,20
1562024439.751081,21,23,43,62,62,24,20,21
1562024439.773496,21,23,46,60,63,27,20,21
1562024439.782422,19,21,44,61,64,26,21,20
1562024439.80335,21,23,46,72,67,25,21,22
1562024439.825945,22,25,53,81,72,28,22,20
1562024439.842453,21,25,51,75,69,25,22,19
1562024439.863468,21,26,50,75,72,24,21,19
1562024439.886012,20,28,53,77,77,23,20,20
1562024439.902216,22,28,50,69,76,22,19,19
1562024439.923006,20,25,39,58,71,21,20,20
1562024439.945459,21,25,41,62,79,25,20,19
1562024439.961981,22,26,42,64,79,26,22,21
1562024439.991015,23,25,43,62,76,28,23,22
1562024440.005945,24,29,46,65,82,29,21,22
1562024440.022391,24,30,50,63,151,26,21,20
1562024440.043569,23,29,46,66,167,27,22,22
1562024440.082306,23,28,50,74,207,29,21,22
1562024440.084296,25,29,52,74,217,29,20,19
1562024440.103386,20,22,47,69,226,29,21,20
1562024440.125919,21,25,43,76,187,31,20,22
1562024440.14242,21,26,48,78,175,27,22,21
1562024440.16344,22,27,43,75,134,25,20,20
1562024440.185844,24,32,46,85,120,25,22,21
1562024440.224765,25,33,51,87,107,25,23,20
1562024440.226496,25,34,53,89,112,25,21,19
1562024440.245942,26,37,52,91,110,24,20,18
1562024440.262341,27,37,53,89,106,25,22,17
1562024440.28485,23,32,48,86,105,29,23,17
1562024440.307334,28,39,55,87,94,32,27,19
1562024440.329884,28,35,52,76,83,35,28,20
1562024440.351028,27,32,55,74,77,36,27,22
1562024440.366081,24,33,57,85,70,37,26,23
1562024440.382223,28,35,60,77,62,35,25,24
1562024440.382331,28,35,60,77,62,35,25,24
1562024444.671611,19,24,24,35,47,28,19,21
1562024444.694467,20,26,26,38,48,29,20,23
1562024444.716587,19,26,33,39,45,27,20,23
1562024444.73187,20,24,31,40,47,26,21,25
1562024444.754249,20,26,31,42,47,27,23,24
1562024444.77643,19,23,33,38,52,29,22,24
1562024444.7916,21,22,34,37,63,32,23,25
1562024444.814014,21,23,28,36,94,32,21,26
1562024444.836533,20,23,30,40,96,34,20,24
1562024444.851523,21,24,31,41,99,36,19,27
1562024444.874041,23,24,29,41,112,34,22,26
1562024444.89648,21,24,25,39,109,32,23,23
1562024444.911602,21,23,22,44,105,32,24,24
1562024444.934279,21,24,18,38,110,29,25,26
1562024444.956431,21,22,20,35,120,28,26,25
1562024444.977407,19,21,23,38,118,26,24,26
1562024444.994245,20,22,25,39,118,28,23,25
1562024445.016723,20,21,27,38,110,27,23,23
1562024445.037339,19,21,27,39,103,29,22,20
1562024445.054221,20,22,27,43,98,29,20,26
1562024445.076669,22,23,25,46,132,29,19,25
1562024445.097216,23,24,27,47,136,29,18,26
1562024445.114246,22,26,27,46,151,28,17,25
1562024445.136469,24,23,27,53,171,31,17,27
1562024445.157458,23,21,26,57,181,31,18,20
1562024445.173799,23,22,28,60,156,32,20,24
1562024445.196365,22,21,27,64,160,33,22,24
1562024445.217264,22,18,26,66,150,35,24,25
1562024445.234617,20,20,28,62,136,35,24,26
1562024445.256555,19,22,29,56,160,35,24,27
1562024445.277591,17,22,30,49,163,34,25,24
1562024445.294021,17,22,27,43,162,34,24,25
1562024445.317239,18,22,29,38,154,33,24,30
1562024445.337707,18,21,26,33,152,29,23,28
1562024445.354107,19,23,33,34,108,31,23,29
1562024445.382523,20,22,32,35,123,28,22,29
1562024445.397357,20,21,34,34,111,30,21,27
1562024445.413966,22,22,34,34,133,30,18,20
1562024445.436627,22,23,36,35,136,31,20,21
1562024445.457444,23,20,38,37,138,29,19,23
1562024445.474052,22,23,39,36,126,29,22,24
1562024445.496638,22,27,40,47,166,27,20,25
1562024445.517244,22,27,40,49,157,29,22,26
1562024445.534274,21,27,41,53,161,30,20,26
1562024445.556397,21,26,33,52,166,30,21,23
1562024445.577329,22,25,32,54,160,31,18,22
1562024445.599843,22,21,31,48,144,29,19,21
1562024445.622212,19,21,29,45,155,28,18,24
1562024445.637416,20,25,31,41,155,31,20,26
1562024445.65978,19,25,28,39,161,31,20,24
1562024445.68238,22,25,30,44,189,35,21,25
1562024445.697462,22,24,28,41,195,37,20,24
1562024445.719845,23,26,30,40,202,35,22,24
1562024445.742604,24,22,27,47,207,33,22,21
1562024445.757372,24,23,29,51,216,33,22,22
1562024445.779927,22,23,27,48,206,31,24,21
1562024445.802542,21,27,30,50,214,29,24,22
1562024445.817399,20,24,28,55,213,32,22,23
1562024445.839975,19,25,27,48,209,31,22,25
1562024445.871123,20,26,30,46,219,30,23,25
1562024445.879075,18,25,30,46,208,29,20,26
1562024445.899895,18,21,27,46,219,29,20,25
1562024445.930607,19,23,27,48,230,33,20,20
1562024445.937294,19,23,28,49,226,34,22,24
1562024445.959782,19,23,27,51,216,35,20,24
1562024445.982975,19,23,25,50,225,33,24,24
1562024445.997273,20,25,27,56,203,33,25,26
1562024446.019872,21,24,29,50,176,27,28,31
1562024446.042463,23,25,32,50,202,28,27,27
1562024446.057421,24,25,32,51,191,28,28,28
1562024446.079819,25,25,33,50,220,29,26,28
1562024446.102383,26,24,33,46,214,29,25,30
1562024446.117426,25,24,31,50,217,29,22,25
1562024446.139816,22,22,29,50,198,27,19,26
1562024446.162553,22,22,28,50,210,28,23,26
1562024446.17733,20,24,26,53,188,27,21,26
1562024446.199871,21,26,25,51,184,27,21,24
1562024446.222403,22,29,31,57,177,26,22,24
1562024446.23721,23,29,30,60,169,26,24,23
1562024446.26829,22,29,30,58,152,24,21,21
1562024446.28246,24,29,33,61,168,27,24,21
1562024446.29752,22,26,32,61,178,29,24,24
1562024446.319851,22,25,27,56,217,29,23,23
1562024446.342229,22,25,26,66,239,30,22,24
1562024446.36486,21,23,31,67,249,31,21,24
1562024446.381447,20,21,29,75,243,32,19,29
1562024446.402428,24,23,29,75,235,35,20,25
1562024446.433067,23,21,30,76,206,34,21,28
1562024446.439832,24,22,31,75,193,35,21,29
1562024446.462391,25,22,27,75,203,34,22,29
1562024446.484859,24,23,28,65,179,31,24,27
1562024446.499858,22,22,28,65,179,25,23,28
1562024446.522374,20,22,28,70,197,32,22,27
1562024446.544843,18,22,32,63,200,40,23,26
1562024446.559769,20,24,33,58,172,48,26,25
1562024446.582418,21,24,31,54,170,50,25,23
1562024446.604849,21,24,30,54,164,50,32,28
1562024446.619797,22,23,32,53,136,53,32,28
1562024446.642566,21,23,27,54,104,53,35,29
1562024446.664914,19,23,26,64,161,49,34,30
1562024446.679959,18,23,26,70,169,51,34,33
1562024446.702363,18,20,27,70,178,55,46,29
1562024446.724772,19,22,30,74,176,61,111,29
1562024446.739753,21,22,31,70,174,61,121,31
1562024446.762327,21,21,33,64,120,62,126,32
1562024446.784918,23,23,34,67,117,60,127,32
1562024446.799821,24,27,35,73,99,57,126,31
1562024446.82225,24,27,28,66,90,47,80,31
1562024446.845045,24,29,33,68,91,40,72,33
1562024446.859979,24,29,35,68,85,40,65,50
1562024446.88257,23,28,35,63,59,39,63,53
1562024446.904841,22,24,35,54,59,40,55,57
1562024446.935598,21,23,37,57,56,39,48,58
1562024446.942427,22,21,34,53,59,37,33,60
1562024446.964728,21,25,31,54,73,30,31,60
1562024446.98816,23,25,30,51,90,35,31,58
1562024447.002545,24,25,30,45,90,33,33,54
1562024447.024946,26,25,28,44,145,31,31,53
1562024447.039822,24,27,28,49,156,38,30,50
1562024447.062502,26,24,28,55,151,41,30,34
1562024447.084931,24,25,28,60,155,37,28,30
1562024447.0999,25,29,29,64,155,38,25,47
1562024447.122363,24,28,29,58,120,39,27,47
1562024447.144856,24,27,27,56,134,33,27,45
1562024447.159781,24,27,30,49,136,30,25,47
1562024447.182391,24,26,30,49,141,30,28,52
1562024447.204729,24,24,30,47,141,29,27,42
1562024447.219761,26,26,30,49,137,28,25,42
1562024447.242375,26,28,31,52,112,28,27,41
1562024447.264828,25,28,28,51,117,29,26,39
1562024447.279707,27,28,27,44,127,28,24,31
1562024447.302182,27,27,25,47,134,26,22,27
1562024447.324874,25,26,25,47,138,28,25,23
1562024447.348106,27,25,26,42,138,31,25,23
1562024447.362418,26,23,26,42,142,29,24,23
1562024447.38478,24,23,29,45,113,30,24,22
1562024447.408543,24,24,29,39,112,32,25,21
1562024447.430644,25,23,30,41,120,32,22,23
1562024447.444936,24,23,30,49,155,27,21,22
1562024447.468149,26,26,31,50,146,29,22,24
1562024447.490811,26,26,36,49,150,31,21,24
1562024447.504909,27,27,36,52,147,29,20,22
1562024447.528017,26,26,36,56,213,36,20,22
1562024447.542454,26,27,35,56,200,36,21,22
1562024447.564693,26,23,34,56,207,37,22,20
1562024447.588378,23,24,28,56,217,35,22,22
1562024447.602449,23,23,29,57,233,37,22,23
1562024447.624815,24,24,29,52,186,31,22,22
1562024447.648339,23,21,28,45,201,33,20,22
1562024447.662465,31,23,30,50,205,31,20,26
1562024447.684804,33,21,27,50,206,33,24,24
1562024447.708124,33,23,28,48,220,32,24,25
1562024447.722286,34,23,29,51,208,33,24,26
1562024447.745024,36,25,29,54,188,32,24,25
1562024447.768095,34,24,30,52,190,32,25,21
1562024447.782304,33,24,31,57,199,31,22,25
1562024447.805426,35,23,30,58,188,32,24,24
1562024447.827873,32,24,36,55,194,33,25,23
1562024447.842451,31,22,36,59,189,34,25,24
1562024447.873141,29,22,33,58,212,35,23,25
1562024447.888088,31,23,34,56,208,38,24,22
1562024447.902546,28,23,35,64,214,41,25,25
1562024447.92549,30,23,32,69,229,40,26,26
1562024447.94806,31,26,34,87,300,49,27,25
1562024447.962269,30,24,36,97,286,56,29,24
1562024447.985556,28,24,36,97,277,55,28,27
1562024448.008097,27,24,37,95,284,52,26,24
1562024448.022487,25,24,33,104,297,53,24,23
1562024448.046117,23,23,36,90,248,47,24,27
1562024448.067988,20,24,34,82,256,38,24,29
1562024448.08236,20,26,33,87,262,35,24,27
1562024448.105497,21,25,33,88,277,35,25,27
1562024448.128068,20,25,34,74,245,35,27,28
1562024448.142581,18,23,29,72,230,28,25,27
1562024448.165599,19,25,31,69,212,31,24,25
1562024448.187897,21,22,33,64,221,32,24,27
1562024448.202396,20,22,32,57,158,30,23,27
1562024448.225559,19,22,30,59,172,27,22,27
1562024448.248114,20,25,29,64,175,35,23,25
1562024448.270687,20,25,28,68,175,36,32,25
1562024448.285597,17,24,26,66,153,39,32,26
1562024448.30812,22,27,26,68,155,43,68,33
1562024448.330642,23,26,28,66,141,45,72,34
1562024448.34549,23,25,31,66,123,44,74,36
1562024448.375935,27,25,31,79,132,44,73,37
1562024448.390716,28,27,33,79,127,42,80,39
1562024448.405636,24,26,33,81,127,43,64,33
1562024448.428057,24,28,32,102,145,47,69,31
1562024448.450549,35,28,35,106,156,46,82,36
1562024448.465474,38,28,34,96,151,48,87,39
1562024448.488102,43,28,32,95,147,54,105,43
1562024448.510527,44,27,31,95,147,54,111,51
1562024448.525478,52,26,32,82,131,52,107,55
1562024448.548298,47,27,30,77,112,52,100,52
1562024448.570641,44,26,30,76,105,50,107,49
1562024448.585334,43,23,32,86,118,45,89,45
1562024448.608072,43,25,31,86,121,42,92,37
1562024448.630598,37,25,32,74,104,41,100,40
1562024448.645586,45,24,27,68,97,42,107,51
1562024448.667957,53,29,39,68,89,44,101,71
1562024448.690561,54,30,41,57,84,44,100,72
1562024448.705616,54,30,42,57,69,42,88,72
1562024448.727915,54,29,41,63,73,40,91,68
1562024448.750559,47,27,41,61,75,42,83,64
1562024448.76481,37,24,32,58,73,41,81,41
1562024448.788081,31,22,28,55,57,43,82,53
1562024448.810662,29,23,29,50,57,42,82,57
1562024448.825355,24,22,27,46,108,42,73,58
1562024448.848079,23,22,28,47,109,38,79,75
1562024448.871305,20,22,27,49,113,35,82,81
1562024448.884925,21,24,31,53,114,31,90,72
1562024448.908016,22,22,30,54,123,34,91,69
1562024448.930445,22,22,30,51,85,35,92,68
1562024448.944945,22,23,30,52,84,36,91,45
1562024448.967943,24,23,31,55,96,33,85,34
1562024448.990555,24,20,27,53,110,33,71,40
1562024449.004997,22,21,25,52,106,31,72,43
1562024449.027891,24,23,24,52,106,29,87,49
1562024449.050578,21,23,26,51,109,32,84,48
1562024449.064828,20,23,25,46,118,32,87,48
1562024449.088095,21,24,26,42,106,35,87,43
1562024449.11059,22,24,29,39,103,35,120,45
1562024449.124838,22,23,30,40,100,36,110,43
1562024449.148064,23,22,30,37,101,32,111,43
1562024449.17104,24,24,29,37,78,35,112,42
1562024449.185003,23,24,30,41,100,29,114,44
1562024449.207901,23,25,29,40,115,28,83,40
1562024449.230807,25,25,29,42,138,26,78,34
1562024449.253011,25,25,29,45,144,25,70,39
1562024449.26814,25,22,29,45,158,25,69,45
1562024449.290527,25,24,31,48,160,30,65,42
1562024449.312973,24,22,29,57,155,30,60,40
1562024449.327959,23,24,30,54,154,34,58,40
1562024449.350415,24,25,27,58,150,38,57,34
1562024449.372612,23,25,28,57,155,39,64,31
1562024449.38757,24,25,28,65,162,45,76,31
1562024449.410294,30,28,33,66,154,49,81,33
1562024449.432882,29,27,33,67,142,48,89,33
1562024449.447118,28,26,34,62,164,46,89,32
1562024449.470159,30,27,33,62,161,46,83,31
1562024449.492191,30,28,36,49,159,39,73,33
1562024449.50717,26,27,31,45,175,35,77,31
1562024449.52994,27,27,30,46,186,35,73,30
1562024449.552581,31,27,30,54,182,36,73,29
1562024449.567363,30,29,34,66,190,37,72,25
1562024449.590119,30,28,30,70,226,38,70,23
1562024449.613141,31,29,33,68,244,42,60,22
1562024449.627554,29,27,34,67,252,42,58,25
1562024449.651182,28,28,37,76,270,47,56,26
1562024449.672013,27,28,39,93,327,48,55,26
1562024449.688223,29,32,43,94,331,55,57,28
1562024449.712188,28,30,42,94,316,52,48,31
1562024449.731845,30,31,45,94,314,53,41,31
1562024449.748378,30,30,44,83,300,51,39,31
1562024449.770788,29,28,40,55,232,45,41,30
1562024449.791794,29,24,38,56,252,34,35,30
1562024449.808288,30,25,39,53,246,36,33,30
1562024449.830937,29,25,36,56,247,36,30,30
1562024449.851813,27,25,36,55,238,34,30,32
1562024449.868261,27,25,37,53,238,38,24,33
1562024449.890722,24,25,34,50,193,38,24,29
1562024449.911862,24,27,36,53,203,36,23,27
1562024449.928212,23,29,36,52,186,34,24,27
1562024449.950973,21,28,37,55,201,32,26,23
1562024449.971818,21,27,36,57,210,27,27,23
1562024449.98827,21,26,38,55,194,32,27,25
1562024450.00904,19,23,34,55,207,38,30,26
1562024450.032868,20,20,36,55,214,39,30,24
1562024450.047868,21,22,31,50,195,38,30,26
1562024450.068965,21,22,32,54,181,42,31,25
1562024450.091421,23,25,33,51,183,43,32,27
1562024450.108265,23,24,33,54,183,39,30,24
1562024450.129459,23,26,32,55,174,35,27,26
1562024450.151792,22,26,33,60,188,39,26,29
1562024450.174466,22,28,33,58,182,35,25,30
1562024450.189405,19,25,30,63,165,30,26,29
1562024450.212042,21,26,31,74,141,31,29,31
1562024450.23437,20,24,29,73,138,32,30,31
1562024450.249256,22,22,29,71,123,37,29,36
1562024450.27188,22,20,28,76,155,43,30,44
1562024450.294439,26,24,28,78,153,45,31,46
1562024450.309562,25,24,25,66,145,45,31,50
1562024450.331994,26,25,35,74,153,49,29,50
1562024450.354397,26,26,35,80,159,45,32,55
1562024450.37079,26,26,35,77,128,43,38,59
1562024450.391829,25,25,33,72,171,41,38,60
1562024450.414534,25,25,35,72,189,42,37,60
1562024450.430756,24,25,25,64,215,41,39,61
1562024450.45181,21,25,28,59,219,40,40,55
1562024450.474557,24,23,27,62,222,37,34,53
1562024450.489527,21,24,28,61,200,38,33,57
1562024450.512301,22,26,27,56,194,41,33,56
1562024450.534285,22,25,27,56,163,40,36,56
1562024450.549352,23,24,25,54,154,44,37,57
1562024450.572043,22,29,32,49,147,45,34,49
1562024450.594734,21,27,32,49,132,45,38,55
1562024450.609673,20,26,33,53,119,41,42,52
1562024450.632015,22,27,33,53,124,40,38,51
1562024450.654878,22,29,34,52,110,35,36,46
1562024450.670291,20,26,33,55,103,32,36,45
1562024450.692308,23,26,34,54,110,32,33,31
1562024450.714757,24,26,33,53,133,39,26,28
1562024450.729803,25,26,34,53,117,39,25,26
1562024450.752347,26,25,34,51,120,38,25,28
1562024450.774896,28,25,29,49,171,38,24,29
1562024450.789799,27,28,35,65,168,37,21,29
1562024450.812277,27,28,36,64,146,31,22,29
1562024450.834993,26,26,35,63,147,30,22,30
1562024450.849903,25,26,39,64,149,32,23,28
1562024450.872396,26,25,41,61,89,31,26,27
1562024450.894935,26,22,38,55,78,32,27,22
1562024450.909883,25,21,36,59,76,31,29,22
1562024450.932487,25,22,36,68,79,30,27,21
1562024450.954949,24,25,41,71,70,33,27,21
1562024450.969939,28,27,47,75,69,34,31,23
1562024450.992445,26,31,55,75,69,36,32,22
1562024451.014903,28,33,58,75,67,35,30,22
1562024451.02976,27,33,60,71,57,38,31,25
1562024451.052243,28,32,55,69,58,36,32,27
1562024451.074919,24,33,59,84,67,36,25,26
1562024451.097605,24,29,53,79,68,33,25,26
1562024451.112335,26,27,55,84,66,34,27,25
1562024451.13487,27,29,54,91,67,28,27,23
1562024451.157331,27,28,59,97,67,31,23,20
1562024451.172204,26,27,60,84,51,33,56,22
1562024451.194974,28,28,56,86,45,38,83,23
1562024451.217191,28,30,61,83,42,39,95,24
1562024451.232361,29,29,65,78,44,43,101,23
1562024451.254796,30,29,60,71,42,42,107,24
1562024451.277286,36,28,54,75,43,40,100,23
1562024451.292395,40,29,56,72,44,37,81,23
1562024451.314854,42,27,47,73,43,36,66,21
1562024451.337315,41,28,44,79,41,34,68,24
1562024451.352156,40,28,45,83,37,33,59,26
1562024451.376509,63,33,43,86,37,34,58,92
1562024451.397388,71,33,41,86,35,33,58,99
1562024451.41252,74,34,38,86,35,32,64,102
1562024451.435133,76,32,38,89,33,34,70,104
1562024451.457351,78,35,35,84,30,34,78,105
1562024451.479865,60,30,33,82,26,35,102,58
1562024451.49472,50,28,35,88,27,36,110,48
1562024451.517443,52,30,40,88,27,38,107,46
1562024451.532353,50,36,42,75,27,36,99,48
1562024451.554911,47,33,40,74,28,37,94,45
1562024451.577352,52,35,48,75,27,33,63,60
1562024451.592364,52,34,51,72,28,30,47,61
1562024451.614971,48,33,48,67,28,29,46,58
1562024451.645563,59,32,44,64,28,29,41,71
1562024451.652471,76,32,47,62,32,31,46,76
1562024451.674884,75,36,46,58,34,32,41,68
1562024451.697364,74,35,49,62,36,34,41,67
1562024451.712344,73,35,48,59,36,34,44,68
1562024451.734789,78,39,47,60,35,34,42,53
1562024451.757451,70,43,46,59,31,30,35,47
1562024451.772286,70,39,37,51,31,35,35,52
1562024451.795006,80,39,30,44,29,35,35,55
1562024451.817481,80,40,36,57,29,33,32,55
1562024451.832486,72,33,36,63,28,32,31,52
1562024451.854991,66,31,36,63,29,33,28,51
1562024451.87727,65,30,38,60,26,30,26,39
1562024451.89234,50,33,41,66,27,26,21,31
1562024451.914792,48,31,39,60,26,26,20,28
1562024451.937512,38,31,39,57,29,27,19,23
1562024451.952453,32,27,38,57,39,27,18,21
1562024451.983147,27,26,41,64,110,32,28,26
1562024451.997452,23,22,38,56,146,37,30,26
1562024452.012226,22,24,39,61,207,38,31,27
1562024452.036706,22,27,43,64,213,44,31,33
1562024452.057283,21,27,46,79,236,52,33,39
1562024452.080687,22,29,47,78,231,55,31,41
1562024452.094937,25,32,47,83,292,62,33,55
1562024452.117273,26,30,48,83,270,65,36,58
1562024452.140656,26,27,44,88,276,64,36,56
1562024452.15478,26,28,44,92,320,65,36,53
1562024452.177437,25,28,43,94,350,64,36,49
1562024452.200663,23,26,46,93,303,58,35,38
1562024452.21478,22,33,49,127,357,55,36,43
1562024452.2374,22,35,52,141,357,54,39,45
1562024452.260648,22,37,54,146,313,48,39,44
1562024452.274858,26,37,57,171,274,45,36,45
1562024452.297221,26,37,57,188,274,46,35,42
1562024452.320592,29,34,53,166,204,53,34,42
1562024452.334891,30,35,54,171,231,56,41,45
1562024452.357413,30,33,52,163,231,54,42,51
1562024452.380532,27,31,46,141,229,56,43,50
1562024452.394771,25,30,39,171,256,53,42,50
1562024452.417386,24,30,39,180,268,47,42,51
1562024452.440516,22,25,32,177,291,44,34,58
1562024452.455186,20,27,31,206,292,44,33,53
1562024452.477394,21,29,36,216,293,44,34,54
1562024452.500448,21,29,40,194,265,42,37,56
1562024452.514876,21,29,44,189,241,40,35,48
1562024452.537252,24,33,60,190,174,38,34,37
1562024452.560565,24,33,62,169,167,36,33,40
1562024452.574845,23,35,68,155,172,32,33,39
1562024452.597508,24,35,66,145,159,37,34,39
1562024452.621283,24,33,67,162,152,34,32,39
1562024452.635497,23,36,71,147,145,32,33,37
1562024452.657268,24,35,72,142,131,35,32,34
1562024452.680686,24,31,68,139,117,36,29,32
1562024452.694924,25,32,68,139,124,32,25,29
1562024452.717365,24,33,64,128,113,34,26,31
1562024452.740471,23,27,51,126,115,34,27,26
1562024452.754895,23,27,48,119,107,31,29,26
1562024452.77732,24,27,43,118,87,27,31,26
1562024452.800493,22,25,42,101,65,28,33,24
1562024452.814762,23,26,47,74,103,26,33,24
1562024452.837179,23,27,40,70,118,27,33,24
1562024452.860574,23,26,39,58,119,29,33,24
1562024452.874872,23,29,40,52,122,33,31,25
1562024452.897318,29,30,39,57,115,29,29,25
1562024452.920403,30,29,33,58,79,30,29,23
1562024452.934886,31,28,38,54,53,29,27,29
1562024452.957124,31,28,41,51,49,27,28,29
1562024452.980571,35,24,47,61,45,23,28,30
1562024453.003192,36,25,48,61,40,24,29,30
1562024453.017672,37,25,47,59,38,21,31,29
1562024453.042359,39,24,45,68,35,23,30,26
1562024453.063144,39,26,42,69,33,24,29,26
1562024453.077132,36,25,35,61,31,23,31,25
1562024453.100431,31,22,36,57,41,24,32,28
1562024453.123208,30,24,37,59,46,29,29,27
1562024453.137314,26,23,35,46,46,30,27,27
1562024453.159893,24,22,34,59,149,33,25,28
1562024453.182979,23,22,32,61,164,36,23,28
1562024453.197403,21,24,31,63,181,38,24,28
1562024453.220507,21,23,28,66,211,35,25,28
1562024453.242977,19,24,30,71,230,34,27,26
1562024453.257436,19,25,32,61,203,32,28,24
1562024453.280477,20,27,33,71,255,31,27,25
1562024453.303035,20,28,37,74,265,28,29,30
1562024453.317294,19,28,37,73,294,32,32,32
1562024453.340413,20,27,38,72,294,36,32,32
1562024453.362888,21,28,39,70,283,36,31,32
1562024453.377245,20,27,38,68,242,35,31,31
1562024453.400336,22,26,32,75,241,34,26,27
1562024453.423355,21,27,32,78,199,32,23,28
1562024453.437318,21,29,31,79,185,29,26,29
1562024453.460548,20,27,26,80,186,27,25,28
1562024453.483393,20,26,24,69,171,28,26,29
1562024453.497299,19,25,26,54,148,36,27,28
1562024453.520457,19,23,27,54,132,36,25,26
1562024453.543037,19,24,35,50,140,38,24,26
1562024453.557331,19,24,36,53,153,38,27,25
1562024453.58048,22,25,37,55,156,37,25,25
1562024453.603125,22,27,39,55,152,30,24,25
1562024453.61732,23,30,40,49,154,32,26,23
1562024453.648098,23,27,32,47,151,32,23,22
1562024453.66316,25,27,31,42,143,32,20,23
1562024453.677355,23,27,32,43,143,34,19,22
1562024453.700581,22,25,31,49,193,33,20,24
1562024453.723068,21,22,30,50,190,29,19,24
1562024453.737334,22,28,37,54,179,27,19,24
1562024453.760505,20,28,36,55,176,25,24,24
1562024453.783086,21,29,36,53,190,24,24,24
1562024453.79738,22,29,37,51,135,27,25,20
1562024453.820458,25,29,36,45,121,27,23,20
1562024453.843455,22,22,31,43,129,29,25,18
1562024453.857355,22,22,31,46,139,31,21,24
1562024453.880692,24,21,30,50,118,32,22,25
1562024453.903171,24,21,26,51,131,31,21,26
1562024453.917776,22,20,27,52,125,32,23,27
1562024453.940448,22,20,26,49,116,30,23,27
1562024453.963151,25,21,33,47,96,27,22,23
1562024453.985656,22,18,33,52,86,27,21,26
1562024454.000409,22,18,34,47,63,25,22,25
1562024454.022913,22,18,33,49,64,27,20,25
1562024454.045605,23,19,33,48,63,29,20,27
1562024454.060387,20,21,25,49,64,31,24,30
1562024454.083128,21,22,23,40,62,30,28,27
1562024454.105541,22,24,24,48,64,31,31,28
1562024454.120549,21,25,27,55,129,28,30,27
1562024454.143556,21,26,27,56,136,26,29,27
1562024454.165574,21,25,30,55,134,25,26,23
1562024454.180549,23,24,28,55,137,25,23,29
1562024454.203127,23,24,28,50,160,25,18,28
1562024454.225448,23,24,29,49,119,25,21,29
1562024454.240493,21,23,27,50,116,26,23,28
1562024454.262315,22,22,25,48,157,30,24,28
1562024454.28549,20,24,28,50,175,31,23,26
1562024454.300421,20,23,28,53,157,31,25,29
1562024454.32312,20,21,25,50,163,32,24,28
1562024454.345496,21,24,26,48,162,31,24,31
1562024454.360636,20,22,25,52,133,26,23,28
1562024454.383219,24,22,23,49,112,26,23,24
1562024454.405422,23,22,27,44,110,28,23,21
1562024454.420434,23,23,26,41,99,30,25,28
1562024454.443028,23,20,28,44,98,30,24,26
1562024454.465415,23,24,29,39,87,31,22,27
1562024454.479793,17,24,32,36,96,32,23,26
1562024454.503232,18,24,28,38,128,33,24,30
1562024454.525947,19,23,29,36,148,29,22,23
1562024454.539743,19,25,29,36,152,32,22,23
1562024454.563188,19,25,28,37,182,32,22,23
1562024454.585648,20,24,33,48,199,33,21,23
1562024454.599791,20,26,35,50,179,31,21,19
1562024454.623036,21,26,34,52,159,33,21,21
1562024454.645449,22,25,32,51,161,30,21,20
1562024454.659864,24,23,32,50,134,32,22,20
1562024454.683252,25,24,28,41,103,30,23,20
1562024454.705658,25,24,29,43,146,30,23,21
1562024454.71965,25,23,32,42,154,28,22,20
1562024454.743099,25,24,32,41,186,28,21,22
1562024454.765553,24,24,33,46,195,29,21,22
1562024454.779973,23,23,31,48,211,29,20,21
1562024454.802994,24,23,29,46,209,33,19,22
1562024454.825534,22,23,25,48,213,32,19,22
1562024454.839792,22,21,23,49,185,32,19,22
1562024454.863077,21,22,23,45,169,29,20,26
1562024454.884839,22,22,23,46,159,31,21,27
1562024454.907263,22,22,23,42,136,25,19,26
1562024454.923923,21,23,23,39,127,26,20,25
1562024454.944869,20,24,25,39,128,24,21,26
1562024454.967344,21,24,26,42,133,26,21,22
1562024454.984082,19,22,27,44,121,22,19,21
1562024455.004799,19,21,26,47,114,25,20,28
1562024455.034847,22,19,27,52,106,24,20,29
1562024455.043953,23,19,25,54,125,25,19,29
1562024455.064533,23,18,27,53,129,23,19,29
1562024455.088766,23,20,24,52,140,24,22,30
1562024455.104103,21,21,23,50,141,23,23,26
1562024455.124747,17,22,25,42,143,22,21,24
1562024455.147287,16,23,26,40,125,22,22,22
1562024455.164086,15,23,25,47,137,25,25,22
1562024455.184719,16,22,28,45,154,24,24,31
1562024455.207352,18,23,27,44,156,26,24,32
1562024455.224015,18,23,25,46,167,26,23,33
1562024455.244786,17,23,30,49,176,27,23,33
1562024455.2672,17,22,30,40,160,26,21,33
1562024455.283985,18,22,28,39,152,28,19,23
1562024455.304527,17,22,31,43,151,29,19,22
1562024455.32725,17,22,31,40,140,28,21,20
1562024455.343927,18,22,30,40,128,32,21,20
1562024455.364573,18,23,31,41,150,34,21,21
1562024455.387199,19,24,31,40,129,33,20,19
1562024455.404099,21,24,29,38,130,32,20,19
1562024455.424788,22,23,31,39,127,33,20,19
1562024455.44734,22,23,30,33,122,31,19,21
1562024455.464383,23,24,28,35,113,30,19,21
1562024455.484775,23,22,29,36,118,32,19,21
1562024455.507493,21,21,31,34,140,31,18,29
1562024455.53181,22,23,32,34,141,33,17,31
1562024455.544695,25,21,31,37,142,32,21,31
1562024455.567313,23,23,31,38,138,30,20,30
1562024455.584107,23,22,31,41,131,30,21,32
1562024455.612213,22,24,32,40,119,28,22,26
1562024455.627421,20,23,28,43,136,26,21,24
1562024455.644158,17,24,29,43,148,25,18,32
1562024455.664962,17,22,31,39,158,24,20,31
1562024455.687323,17,23,30,42,164,22,20,32
1562024455.704173,17,20,29,42,150,23,21,33
1562024455.724895,17,24,31,45,146,26,20,34
1562024455.747402,20,25,29,50,142,29,22,26
1562024455.764784,23,25,26,55,131,30,21,36
1562024455.78471,22,25,27,54,131,34,22,35
1562024455.807275,21,26,24,54,148,32,22,34
1562024455.829914,21,24,23,52,148,30,22,33
1562024455.844714,19,22,25,46,149,27,25,33
1562024455.86721,18,25,29,42,144,25,24,25
1562024455.88961,20,25,29,37,144,22,23,24
1562024455.905075,21,24,29,37,131,23,23,22
1562024455.927499,20,25,28,30,123,23,23,21
1562024455.949831,20,26,26,36,112,22,20,20
1562024455.964772,20,25,25,35,113,27,19,18
1562024455.987424,19,24,25,36,96,24,19,28
1562024456.009715,19,26,25,36,92,24,19,28
1562024456.024802,20,24,24,43,90,25,19,29
1562024456.046556,19,23,28,42,123,27,20,29
1562024456.069083,18,21,26,43,130,24,21,29
1562024456.085388,17,23,26,53,135,25,21,21
1562024456.106473,18,22,26,59,139,25,20,21
1562024456.128997,19,21,25,57,150,25,20,20
1562024456.143949,19,21,26,58,151,26,19,20
1562024456.166467,18,22,26,58,158,28,19,20
1562024456.189465,18,21,26,52,169,29,20,18
1562024456.204609,17,20,27,49,172,29,20,19
1562024456.227165,19,22,28,46,170,30,19,20
1562024456.249609,19,22,23,46,148,31,20,20
1562024456.264784,21,22,27,52,150,30,19,20
1562024456.287136,23,23,28,67,209,34,19,19
1562024456.309625,27,26,29,69,213,38,20,21
1562024456.324734,25,25,34,82,247,59,24,21
1562024456.347241,28,26,38,83,248,76,28,20
1562024456.369664,29,25,36,84,261,77,31,23
1562024456.384666,29,26,34,71,210,76,33,23
1562024456.407343,28,23,34,68,213,85,35,24
1562024456.429761,30,23,28,59,165,74,33,24
1562024456.444728,30,24,32,80,174,60,31,24
1562024456.475399,29,23,31,79,139,61,29,23
1562024456.489848,29,24,33,84,159,61,27,25
1562024456.504751,27,24,35,88,189,45,25,22
1562024456.527355,25,23,35,90,191,40,25,21
1562024456.549745,23,22,31,76,216,34,23,21
1562024456.564765,24,24,32,89,235,33,21,20
1562024456.587468,23,23,33,87,234,34,21,18
1562024456.60975,25,26,31,84,208,38,22,19
1562024456.624882,26,26,31,83,232,42,21,20
1562024456.647185,25,25,30,91,265,45,24,20
1562024456.66984,25,24,30,95,380,52,25,20
1562024456.684951,25,27,27,99,394,52,26,20
1562024456.707265,22,25,27,109,421,52,25,30
1562024456.729877,21,26,27,118,451,55,26,33
1562024456.752286,23,29,39,116,435,56,24,33
1562024456.767262,27,30,44,109,370,54,30,37
1562024456.789873,26,31,50,108,373,53,32,44
1562024456.81233,27,31,48,105,342,53,32,38
1562024456.827154,26,33,48,104,322,48,34,37
1562024456.84983,25,31,40,94,305,42,34,38
1562024456.87242,20,29,35,86,250,37,29,34
1562024456.88722,22,26,30,97,255,48,29,36
1562024456.909835,22,26,32,92,257,53,33,36
1562024456.932363,24,23,33,82,219,57,30,35
1562024456.947462,24,23,33,91,226,58,30,35
1562024456.969717,25,23,34,97,237,70,43,46
1562024456.992184,23,20,32,81,190,71,89,43
1562024457.007489,24,21,32,79,189,72,102,43
1562024457.029838,25,21,31,75,179,73,103,43
1562024457.052337,23,20,32,74,176,77,105,43
1562024457.067347,23,24,31,66,178,71,105,31
1562024457.089908,24,24,30,79,189,72,91,40
1562024457.112421,23,24,30,78,175,77,102,41
1562024457.127313,24,25,28,80,171,80,142,41
1562024457.149898,25,25,28,73,166,84,176,43
1562024457.172304,24,23,25,75,146,98,195,43
1562024457.18727,23,25,27,62,131,101,244,30
1562024457.209795,23,26,27,62,133,99,257,39
1562024457.232299,21,25,29,63,132,95,251,42
1562024457.249195,22,27,30,66,129,109,307,47
1562024457.269946,20,26,30,67,134,131,360,56
1562024457.292354,23,26,33,67,134,136,334,60
1562024457.307293,24,25,33,66,132,132,319,54
1562024457.329867,24,27,33,73,127,134,311,51
1562024457.352342,22,25,30,69,121,119,246,46
1562024457.367354,23,25,30,61,108,77,150,33
1562024457.389859,22,23,26,62,92,61,133,25
1562024457.412187,23,23,28,68,88,69,191,29
1562024457.427509,23,21,26,101,89,69,197,30
1562024457.449889,24,21,29,105,68,76,214,31
1562024457.472334,24,20,32,118,73,87,207,31
1562024457.487299,22,22,31,120,77,89,207,30
1562024457.509725,21,24,31,121,76,116,200,30
1562024457.53433,21,26,32,91,71,120,203,30
1562024457.547096,22,30,35,100,60,117,173,44
1562024457.570042,22,30,34,97,59,107,170,45
1562024457.592365,21,29,37,102,60,107,181,46
1562024457.6075,21,27,36,99,61,100,137,44
1562024457.629982,20,27,37,95,61,99,130,45
1562024457.652289,19,24,31,77,55,96,130,29
1562024457.667339,19,25,31,69,49,99,129,27
1562024457.689757,22,24,29,57,47,100,110,25
1562024457.712394,24,26,32,61,87,70,100,24
1562024457.735543,24,24,29,65,127,60,77,21
1562024457.750752,24,23,33,67,252,59,70,21
1562024457.772486,26,23,32,56,282,55,61,20
1562024457.795069,24,24,33,54,287,40,44,20
1562024457.810327,21,25,31,65,302,41,30,23
1562024457.832077,20,25,32,72,304,44,27,21
1562024457.854971,19,26,33,73,231,43,28,21
1562024457.869371,19,26,33,73,209,45,26,22
1562024457.892106,20,25,34,75,223,51,25,20
1562024457.915581,22,25,37,67,212,50,24,21
1562024457.929755,22,24,37,53,193,45,26,22
1562024457.952377,48,23,33,55,200,46,24,22
1562024457.976014,51,23,31,55,188,47,23,23
1562024457.990336,52,26,30,55,165,39,23,24
1562024458.012145,52,25,24,55,155,37,23,22
1562024458.037282,53,24,24,54,163,38,21,23
1562024458.049703,34,23,22,60,151,38,22,24
1562024458.072415,31,25,25,63,156,33,23,27
1562024458.095438,29,22,26,61,170,34,24,29
1562024458.109798,47,25,33,61,168,34,25,131
1562024458.14057,61,28,35,72,192,40,27,145
1562024458.15545,83,30,38,69,190,40,34,195
1562024458.1698,85,27,36,68,184,43,66,206
1562024458.1923,86,27,36,71,175,44,80,212
1562024458.215466,83,26,31,66,163,47,83,195
1562024458.229691,76,23,27,53,119,43,84,198
1562024458.252281,52,24,27,44,108,43,82,154
1562024458.275392,50,25,28,54,108,38,59,143
1562024458.28977,56,26,26,48,99,44,46,160
1562024458.312304,48,24,26,50,121,43,43,127
1562024458.335458,43,24,28,53,124,45,41,110
1562024458.349687,39,21,25,51,120,47,39,103
1562024458.372193,38,23,24,42,122,48,56,97
1562024458.39551,27,24,26,42,121,42,49,41
1562024458.409761,26,24,24,39,102,37,72,33
1562024458.432994,26,23,23,39,95,33,73,29
1562024458.455378,25,25,21,43,107,28,74,25
1562024458.478084,26,23,23,51,109,28,62,23
1562024458.493167,37,23,24,54,109,27,63,23
1562024458.515474,37,25,25,56,105,27,33,28
1562024458.529892,37,25,24,59,103,28,32,28
1562024458.552956,38,24,26,65,81,28,28,27
1562024458.590698,37,26,25,56,75,26,28,25
1562024458.598005,25,24,27,52,69,29,26,25
1562024458.613013,31,22,27,54,83,28,25,20
1562024458.635365,32,22,28,54,108,28,23,19
1562024458.649884,32,24,26,48,111,29,24,21
1562024458.673084,33,22,28,48,114,29,27,21
1562024458.695523,32,22,27,54,114,29,27,20
1562024458.718123,27,23,27,50,103,30,25,19
1562024458.733019,32,23,27,45,77,30,23,21
1562024458.755485,33,21,27,43,75,30,21,21
1562024458.778204,32,21,25,47,70,30,19,23
1562024458.792992,32,22,23,45,70,31,21,22
1562024458.815575,32,23,21,45,68,33,24,23
1562024458.838079,26,22,23,44,88,32,26,22
1562024458.853082,25,25,23,44,85,33,26,20
1562024458.875417,28,25,23,44,89,32,26,19
1562024458.897947,32,25,26,41,88,29,24,20
1562024458.920473,30,23,26,41,94,26,22,19
1562024458.936207,30,24,28,44,75,27,22,18
1562024458.958117,32,20,29,49,81,26,22,17
1562024458.973013,34,20,28,47,73,28,23,18
1562024458.995443,31,20,29,48,79,28,22,17
1562024459.018079,30,20,29,47,83,28,22,19
1562024459.033017,29,19,26,50,88,28,19,19
1562024459.055468,27,18,24,47,105,28,21,20
1562024459.08558,24,20,27,51,162,30,21,19
1562024459.093174,26,20,29,54,173,34,24,20
1562024459.115466,28,22,28,53,182,34,24,19
1562024459.137832,31,22,29,47,197,33,24,22
1562024459.152365,32,24,31,45,200,31,25,22
1562024459.175527,33,21,28,44,170,30,24,22
1562024459.198175,33,21,25,38,164,25,23,22
1562024459.212133,35,22,25,39,168,26,23,22
1562024459.235457,34,21,23,38,155,32,24,20
1562024459.25795,33,22,23,39,137,33,22,19
1562024459.272311,30,23,27,32,123,31,22,19
1562024459.29544,27,23,26,35,148,33,21,18
1562024459.318004,26,22,26,35,130,32,25,18
1562024459.332291,27,22,25,38,129,27,25,18
1562024459.355738,30,24,25,34,129,27,26,19
1562024459.37809,31,23,22,38,170,27,26,20
1562024459.392324,35,23,26,41,153,29,28,20
1562024459.415401,35,26,26,46,160,29,25,22
1562024459.437981,35,27,27,44,175,28,23,21
1562024459.452321,33,25,28,47,184,32,23,21
1562024459.477489,35,26,29,47,163,33,25,19
1562024459.498019,34,26,26,45,160,31,24,22
1562024459.51288,32,23,26,60,163,30,21,19
1562024459.537613,29,21,25,63,145,31,21,21
1562024459.557372,31,22,25,62,133,27,21,22
1562024459.571546,32,22,21,66,154,29,21,22
1562024459.594727,29,22,22,66,148,28,19,19
1562024459.617479,29,23,23,52,152,27,21,20
1562024459.640102,33,25,25,51,162,28,23,23
1562024459.655375,30,25,24,51,172,30,22,21
1562024459.677999,28,25,26,44,140,28,21,22
1562024459.700313,29,24,25,47,136,27,21,22
1562024459.7154,29,23,24,44,125,27,22,21
1562024459.737915,26,21,27,52,118,26,21,20
1562024459.760373,25,19,26,55,137,23,22,21
1562024459.775398,27,19,25,55,166,23,23,21
1562024459.798102,28,19,25,51,190,26,23,21
1562024459.820613,31,20,28,55,201,26,22,20
1562024459.835467,28,22,27,67,200,27,22,20
1562024459.858098,30,23,30,62,220,27,22,22
1562024459.880389,34,23,32,64,209,27,22,22
1562024459.89538,34,24,32,65,197,26,22,22
1562024459.917983,33,26,34,62,182,27,22,21
1562024459.940528,34,25,33,53,187,25,22,20
1562024459.955411,33,24,32,62,188,28,20,20
1562024459.978192,29,26,33,61,211,27,20,19
1562024460.000325,27,25,32,61,242,28,21,19
1562024460.015406,27,22,31,67,256,28,22,20
1562024460.037977,27,22,32,61,252,28,21,19
1562024460.060128,27,22,31,59,258,28,24,19
1562024460.074556,30,20,31,76,263,30,22,21
1562024460.097061,31,22,32,79,242,31,21,20
1562024460.11888,30,20,30,77,244,31,19,21
1562024460.141457,30,20,29,73,241,32,20,22
1562024460.157922,29,21,28,69,198,29,21,21
1562024460.179461,24,22,27,55,161,27,24,19
1562024460.196116,23,21,27,67,163,25,23,20
1562024460.218942,25,24,30,63,173,25,25,20
1562024460.239663,23,23,29,65,173,25,23,20
1562024460.256247,24,23,28,67,172,27,21,20
1562024460.279065,23,23,30,64,166,27,19,20
1562024460.299829,22,24,28,48,151,27,20,19
1562024460.316309,19,23,24,53,123,28,22,19
1562024460.339092,17,23,23,53,120,29,23,19
1562024460.359798,21,27,28,57,124,28,25,21
1562024460.37624,22,25,27,67,129,29,25,20
1562024460.399125,22,25,28,67,132,28,27,22
1562024460.419726,22,24,28,66,135,28,27,22
1562024460.436456,23,26,31,67,136,25,26,22
1562024460.459165,20,22,30,62,136,24,24,19
1562024460.47959,20,21,30,47,135,24,25,21
1562024460.496231,19,20,31,55,119,23,23,19
1562024460.517294,20,20,33,55,98,25,21,20
1562024460.539802,21,17,32,54,103,24,24,19
1562024460.562351,24,18,33,57,101,30,37,20
1562024460.584726,24,19,34,57,123,30,41,21
1562024460.599795,24,19,34,52,130,30,41,21
1562024460.622383,24,18,34,53,142,30,42,19
1562024460.637384,23,19,35,55,135,31,41,20
1562024460.65981,20,20,32,54,138,28,32,20
1562024460.682446,20,20,33,57,126,27,25,18
1562024460.697313,19,22,35,60,120,30,24,19
1562024460.720289,18,22,33,56,110,32,24,20
1562024460.742394,21,24,31,51,110,33,25,20
1562024460.7573,22,22,31,52,103,32,25,22
1562024460.779913,22,25,30,48,106,33,25,22
1562024460.802443,24,23,28,50,106,32,24,22
1562024460.817467,23,24,29,53,115,32,22,20
1562024460.839755,20,22,27,53,120,37,20,21
1562024460.862338,22,26,34,57,115,38,16,21
1562024460.877328,21,23,33,58,100,38,18,22
1562024460.899764,19,24,31,54,108,37,21,24
1562024460.922335,21,24,34,52,111,34,22,25
1562024460.937329,21,23,35,53,117,31,22,26
1562024460.959707,19,20,31,47,118,29,26,25
1562024460.98239,20,22,31,46,126,29,25,25
1562024460.9976,21,20,32,39,117,29,26,22
1562024461.019918,23,24,30,39,99,29,26,23
1562024461.042326,22,25,33,44,82,27,32,22
1562024461.057353,22,27,37,43,79,26,41,20
1562024461.079754,24,26,37,42,95,27,42,19
1562024461.102303,22,26,37,45,100,27,42,20
1562024461.117273,22,24,39,42,99,27,42,19
1562024461.139744,24,25,43,41,120,29,38,20
1562024461.162338,24,23,37,40,144,29,42,20
1562024461.177227,21,22,37,43,131,28,47,22
1562024461.199817,23,24,43,40,137,26,46,21
1562024461.222238,22,24,44,46,145,26,49,23
1562024461.237238,21,24,38,41,134,25,48,24
1562024461.259704,24,27,42,44,160,31,50,27
1562024461.282331,23,28,41,43,162,31,47,24
1562024461.297352,23,28,36,48,190,34,47,25
1562024461.319765,22,28,32,44,209,35,45,26
1562024461.342331,23,27,34,51,230,34,45,23
1562024461.357289,22,23,31,55,203,29,30,21
1562024461.379842,23,24,32,70,218,31,28,23
1562024461.402474,23,24,36,70,190,32,42,23
1562024461.41735,25,23,37,70,173,31,45,21
1562024461.439792,24,23,37,72,157,32,45,21
1562024461.462241,22,24,37,67,183,32,45,22
1562024461.477231,21,24,38,56,167,32,44,22
1562024461.499825,21,24,38,54,168,28,32,21
1562024461.522371,18,24,38,60,172,28,28,23
1562024461.544789,19,23,36,54,174,29,25,23
1562024461.559847,18,22,36,61,180,30,25,22
1562024461.582611,18,20,36,58,177,30,23,21
1562024461.604773,19,22,34,58,182,31,21,22
1562024461.619791,20,21,32,54,182,30,19,19
1562024461.64222,20,21,34,57,196,34,20,19
1562024461.664833,21,25,36,51,171,33,20,21
1562024461.679978,20,25,36,50,178,31,19,21
1562024461.70246,21,26,34,52,178,31,22,22
1562024461.72488,22,27,35,58,209,32,24,22
1562024461.739816,21,27,32,55,190,26,25,22
1562024461.7623,24,26,33,71,211,28,24,21
1562024461.784859,24,27,32,72,211,28,25,21
1562024461.799805,23,25,30,75,218,29,23,18
1562024461.822371,22,25,28,70,197,28,22,19
1562024461.844865,21,27,31,68,202,29,23,18
1562024461.859702,20,27,30,50,173,31,24,19
1562024461.882456,22,26,30,51,216,29,23,19
1562024461.904859,22,29,33,50,208,30,22,19
1562024461.919814,22,29,37,50,196,30,21,20
1562024461.942399,22,28,36,62,220,27,17,20
1562024461.964698,22,25,33,66,234,22,16,19
1562024461.979782,21,28,34,64,183,24,16,18
1562024462.002273,20,24,34,62,190,21,19,19
1562024462.03289,20,25,32,65,205,24,20,19
1562024462.039783,22,25,33,57,165,27,21,19
1562024462.062366,20,27,33,53,168,28,20,17
1562024462.084762,18,25,31,53,174,28,21,19
1562024462.099779,21,28,29,53,176,28,20,19
1562024462.122366,21,26,28,49,152,31,19,20
1562024462.144747,21,28,29,52,177,29,18,19
1562024462.159783,22,28,31,56,159,31,20,22
1562024462.182305,23,27,36,58,160,31,19,22
1562024462.204665,20,24,37,56,143,33,20,21
1562024462.219776,23,25,39,52,136,29,22,22
1562024462.242234,21,26,38,46,108,32,25,22
1562024462.264772,20,23,37,43,103,33,24,21
1562024462.279714,21,25,33,37,89,32,25,21
1562024462.302549,21,27,35,37,75,31,34,22
1562024462.324818,19,27,32,40,82,30,35,21
1562024462.33994,21,26,34,43,73,29,36,21
1562024462.362424,20,28,34,40,67,30,36,20
1562024462.384846,20,27,34,45,62,39,41,20
1562024462.399847,19,26,29,44,66,42,53,20
1562024462.422392,17,24,32,45,60,45,60,20
1562024462.444825,17,25,30,43,65,45,69,20
1562024462.467326,18,25,31,55,86,44,70,21
1562024462.482283,18,24,32,53,110,37,68,21
1562024462.504867,18,24,32,53,117,35,56,21
1562024462.527676,21,27,29,52,151,34,46,21
1562024462.542345,19,24,29,58,184,39,28,18
1562024462.564729,19,24,29,51,187,38,26,19
1562024462.587217,20,26,32,50,225,38,22,19
1562024462.602207,20,26,34,50,228,40,20,21
1562024462.624808,20,29,38,55,264,41,24,23
1562024462.647333,21,29,38,50,244,40,23,24
1562024462.662353,21,30,39,49,249,41,25,23
1562024462.684902,19,28,36,51,231,45,25,22
1562024462.707254,19,29,35,53,229,43,25,20
1562024462.722356,17,23,31,51,184,40,21,19
1562024462.744911,19,26,32,54,202,40,22,18
1562024462.767969,18,23,29,52,197,39,20,18
1562024462.782279,19,26,30,52,198,34,21,20
1562024462.804877,19,25,29,62,212,35,20,19
1562024462.827892,21,27,30,68,201,34,22,18
1562024462.842246,19,24,29,65,182,30,23,19
1562024462.864729,21,24,28,64,178,29,24,19
1562024462.888017,21,22,26,68,158,27,23,18
1562024462.90235,21,22,26,58,137,27,22,18
1562024462.9249,19,23,24,53,169,29,22,20
1562024462.948194,20,21,25,58,163,31,22,20
1562024462.962503,19,23,27,59,168,36,22,19
1562024462.98482,20,25,28,56,171,35,24,20
1562024463.007985,21,24,29,56,189,33,25,20
1562024463.022346,20,22,29,55,200,35,28,22
1562024463.044947,21,27,29,51,216,38,33,21
1562024463.067851,22,26,27,57,214,44,32,21
1562024463.082344,19,25,28,60,208,49,33,21
1562024463.104663,21,28,26,58,194,50,34,22
1562024463.12806,20,28,25,57,172,52,30,20
1562024463.142559,20,25,27,58,159,57,28,23
1562024463.164855,19,25,27,54,154,54,30,28
1562024463.188011,22,24,24,52,158,51,28,29
1562024463.202426,21,22,23,51,155,55,27,29
1562024463.224754,22,21,24,65,145,56,29,30
1562024463.247805,21,20,23,68,156,49,28,28
1562024463.262302,23,22,27,70,153,52,73,25
1562024463.284592,21,23,29,71,139,70,82,27
1562024463.307797,21,22,30,75,131,73,85,27
1562024463.322277,21,22,29,61,108,77,98,25
1562024463.344629,21,24,32,70,97,83,100,25
1562024463.368143,21,23,32,67,92,81,99,25
1562024463.390579,22,23,31,61,85,76,165,33
1562024463.40485,28,23,32,62,89,100,213,43
1562024463.427869,32,27,37,62,83,111,227,49
1562024463.45042,33,26,38,44,56,117,251,51
1562024463.464965,35,30,39,49,68,132,248,53
1562024463.48804,38,30,46,67,91,143,247,65
1562024463.510713,57,34,49,67,98,136,241,92
1562024463.524763,60,34,47,72,100,126,234,95
1562024463.547928,60,33,42,79,105,127,217,94
1562024463.570482,60,30,42,91,128,116,216,96
1562024463.585322,58,31,39,82,120,191,187,87
1562024463.608094,39,28,35,106,167,217,177,59
1562024463.638007,32,28,36,109,171,219,172,52
1562024463.644726,41,28,40,109,170,216,167,70
1562024463.667814,52,30,46,99,151,213,161,95
1562024463.690369,56,29,44,102,157,141,156,100
1562024463.704735,56,27,44,87,129,120,147,99
1562024463.72776,56,27,45,91,131,129,138,98
1562024463.750548,50,27,42,87,145,130,146,87
1562024463.764753,38,27,38,84,145,139,176,56
1562024463.78822,34,27,37,77,132,140,170,46
1562024463.810664,31,29,38,62,104,109,142,42
1562024463.824931,36,27,35,48,91,90,139,40
1562024463.847989,37,27,36,45,78,112,124,40
1562024463.870992,37,26,31,46,79,106,73,38
1562024463.884713,35,25,32,48,85,95,49,30
1562024463.908006,35,27,39,112,176,96,47,31
1562024463.930689,29,29,47,124,218,104,45,31
1562024463.944862,29,29,47,126,244,78,38,30
1562024463.967878,27,29,47,128,259,69,33,29
1562024463.990769,26,31,50,144,289,77,34,31
1562024464.004759,25,31,49,112,297,81,30,29
1562024464.027999,22,29,43,101,272,69,25,27
1562024464.05057,21,29,41,108,270,63,25,25
1562024464.064838,22,31,44,111,278,62,28,25
1562024464.087825,21,28,39,96,259,59,24,22
1562024464.110392,22,26,38,90,210,55,26,23
1562024464.124819,23,28,46,106,227,71,31,25
1562024464.148015,24,29,49,104,204,78,31,27
1562024464.170547,34,27,46,100,171,77,30,63
1562024464.184859,45,27,45,94,150,72,33,90
1562024464.208337,49,25,43,88,131,66,35,96
1562024464.238177,51,22,33,67,96,56,33,97
1562024464.244879,54,26,41,72,86,44,34,104
1562024464.26802,86,29,51,68,104,46,43,140
1562024464.290382,151,35,53,73,121,55,72,276
1562024464.304948,160,38,57,74,126,56,75,298
1562024464.327967,164,41,61,84,187,49,77,303
1562024464.35061,170,39,56,74,186,53,79,311
1562024464.372979,169,38,47,76,178,50,78,311
1562024464.387868,132,42,52,78,172,43,69,251
1562024464.410681,130,40,51,79,176,38,69,233
1562024464.433104,127,38,45,65,121,37,68,229
1562024464.448105,119,38,43,62,119,30,64,216
1562024464.470523,105,36,42,59,116,33,61,199
1562024464.492954,101,35,41,55,120,32,51,145
1562024464.508147,98,34,37,53,113,32,55,176
1562024464.530588,100,36,40,51,100,32,56,184
1562024464.553013,103,37,45,52,113,35,59,193
1562024464.567978,101,36,45,57,122,37,66,199
1562024464.59065,93,32,42,54,111,37,60,192
1562024464.613042,84,30,41,53,111,36,51,151
1562024464.628019,84,27,39,57,115,37,55,153
1562024464.650582,88,30,39,57,107,36,58,153
1562024464.673028,81,29,41,56,116,34,50,133
1562024464.688007,68,26,38,58,116,32,46,116
1562024464.710536,77,29,41,70,120,36,53,165
1562024464.732839,70,29,44,69,117,37,46,152
1562024464.747948,62,23,39,69,113,36,39,139
1562024464.770547,61,25,39,65,112,33,35,135
1562024464.793084,56,27,47,120,223,59,39,132
1562024464.807169,35,27,46,124,252,66,30,55
1562024464.830577,31,29,42,124,264,67,29,49
1562024464.852664,28,31,45,132,278,69,30,45
1562024464.867269,24,32,49,157,387,83,36,38
1562024464.890484,22,30,44,125,348,72,32,32
1562024464.912975,23,31,47,115,336,66,32,28
1562024464.927341,23,31,49,116,339,66,32,29
1562024464.950496,22,29,46,111,342,63,30,28
1562024464.972934,23,29,44,78,256,45,23,27
1562024464.987302,21,29,39,71,302,39,22,23
1562024465.010449,19,27,36,72,300,38,22,22
1562024465.033102,18,26,34,70,301,44,21,21
1562024465.047185,19,26,33,61,293,43,24,24
1562024465.070581,18,24,31,53,278,42,23,23
1562024465.093039,19,26,30,49,213,43,22,23
1562024465.107274,27,27,30,50,226,45,22,23
1562024465.130553,30,25,27,51,222,41,23,24
1562024465.152973,38,31,31,52,220,44,22,22
1562024465.167308,44,33,31,53,190,46,22,21
1562024465.190614,48,35,34,56,205,49,23,25
1562024465.21302,48,34,34,57,215,51,25,26
1562024465.227245,50,37,36,60,218,55,27,27
1562024465.250576,45,34,33,59,216,53,27,26
1562024465.273009,40,32,37,58,238,52,28,27
1562024465.295304,42,32,33,52,231,47,28,27
1562024465.31058,43,35,39,48,233,45,28,25
1562024465.332938,48,36,40,50,244,39,27,25
1562024465.355108,54,47,49,54,261,50,33,28
1562024465.371737,55,48,47,54,243,51,33,28
1562024465.392107,56,49,51,55,242,52,32,26
1562024465.414041,55,49,46,55,227,52,36,30
1562024465.430487,51,48,43,50,206,51,35,30
1562024465.451493,46,39,34,48,181,42,30,28
1562024465.474251,47,39,38,48,205,41,28,27
1562024465.491358,48,42,35,56,280,42,31,31
1562024465.512291,59,50,40,64,283,42,27,30
1562024465.53492,69,62,47,74,285,46,30,31
1562024465.551643,72,66,47,73,290,44,33,31
1562024465.579879,72,66,45,75,304,44,34,32
1562024465.594859,69,61,43,74,287,42,32,29
1562024465.611588,63,57,40,71,302,43,31,27
1562024465.632281,54,46,41,64,312,40,30,24
1562024465.65498,52,40,40,63,333,39,27,23
1562024465.671701,48,37,38,62,337,43,25,24
1562024465.692381,45,38,39,62,290,43,25,23
1562024465.714865,34,31,37,65,283,43,24,23
1562024465.7315,28,26,31,63,271,42,22,22
1562024465.752405,22,27,34,62,258,45,24,24
1562024465.774896,23,28,40,67,212,45,25,23
1562024465.791574,22,27,39,61,260,48,23,22
1562024465.812285,24,26,42,56,247,48,23,22
1562024465.83547,21,25,37,55,254,45,22,22
1562024465.85795,21,26,38,58,244,43,20,21
1562024465.872245,19,25,35,57,254,41,19,20
1562024465.894916,21,25,33,57,215,38,21,22
1562024465.911509,19,24,32,53,203,35,21,20
1562024465.932255,19,25,35,66,212,36,21,21
1562024465.954965,20,22,33,67,223,36,23,21
1562024465.971671,21,22,29,65,212,33,24,21
1562024465.992364,22,26,32,67,205,33,24,20
1562024466.014685,23,24,31,67,199,38,24,21
1562024466.03162,23,25,30,52,167,44,26,23
1562024466.052373,23,25,28,49,180,42,24,21
1562024466.076613,23,25,30,45,196,41,23,21
1562024466.091653,19,24,30,42,235,41,24,20
1562024466.112101,19,28,34,44,247,35,23,21
1562024466.136345,21,26,32,50,256,29,21,21
1562024466.151356,18,26,34,51,241,29,22,22
1562024466.172164,21,26,33,63,227,31,23,23
1562024466.194715,22,25,35,65,226,30,22,24
1562024466.211933,23,22,31,68,218,30,21,22
1562024466.232275,22,22,33,69,218,33,20,21
1562024466.254747,24,24,37,69,211,34,20,22
1562024466.277276,22,25,37,59,225,33,20,21
1562024466.292075,24,26,37,61,211,38,22,19
1562024466.314759,24,26,41,60,205,41,26,20
1562024466.337285,29,27,40,59,199,37,28,20
1562024466.352229,30,26,36,55,190,40,29,20
1562024466.374807,32,29,35,67,242,44,29,24
1562024466.39724,32,28,35,66,229,41,27,24
1562024466.412373,34,26,28,63,267,41,26,24
1562024466.434839,31,26,34,66,271,44,28,24
1562024466.457279,30,26,37,66,289,43,28,24
1562024466.472294,31,28,40,54,279,40,28,23
1562024466.494825,31,29,41,59,290,41,28,25
1562024466.517503,32,30,42,62,262,37,27,24
1562024466.532156,32,28,37,56,270,32,26,27
1562024466.554804,34,29,34,58,261,29,27,29
1562024466.57723,31,24,32,62,226,31,24,28
1562024466.592163,35,22,28,68,226,28,24,32
1562024466.614778,35,25,26,75,256,38,26,41
1562024466.637309,36,25,28,80,243,42,27,40
1562024466.652351,41,26,28,77,236,46,31,43
1562024466.674781,43,27,28,78,228,49,34,45
1562024466.6973,44,29,30,71,200,52,35,41
1562024466.712233,43,28,33,61,157,47,33,34
1562024466.734032,43,29,37,61,175,44,32,36
1562024466.756454,38,29,38,71,199,42,30,33
1562024466.771546,36,28,39,68,203,36,28,31
1562024466.794002,31,28,41,71,208,38,29,32
1562024466.816902,38,30,40,76,236,39,29,34
1562024466.831985,38,27,34,72,250,40,29,31
1562024466.854841,38,30,34,63,230,35,28,27
1562024466.877309,41,32,35,66,226,37,27,27
1562024466.892276,41,30,33,59,225,30,26,28
1562024466.914895,35,28,35,55,205,28,26,25
1562024466.937386,34,29,34,57,167,33,25,23
1562024466.952324,32,26,37,65,199,35,23,23
1562024466.975452,29,23,38,64,207,35,24,22
1562024466.99743,27,22,37,61,214,36,23,21
1562024467.012196,24,24,34,61,206,35,24,17
1562024467.03491,24,23,35,60,215,29,25,19
1562024467.05729,23,25,33,62,188,33,26,18
1562024467.073909,22,26,29,63,198,33,24,19
1562024467.094975,21,26,31,64,194,35,24,19
1562024467.117144,22,26,32,60,204,35,23,20
1562024467.132315,22,27,34,64,206,38,19,20
1562024467.154928,23,28,35,57,201,36,21,23
1562024467.177366,23,28,35,58,207,39,22,21
1562024467.199792,22,28,36,76,216,41,22,23
1562024467.2148,22,28,37,76,215,40,23,24
1562024467.237305,24,28,34,75,225,40,23,28
1562024467.260003,23,26,32,73,233,44,24,27
1562024467.2748,23,27,32,71,211,40,24,27
1562024467.297289,23,26,30,55,197,37,23,26
1562024467.319872,24,26,31,62,181,39,22,33
1562024467.334831,21,27,35,59,168,37,25,37
1562024467.357322,21,26,33,62,173,33,23,38
1562024467.37982,20,23,32,63,171,37,25,40
1562024467.394609,20,23,32,61,179,39,26,40
1562024467.417139,18,25,31,53,186,39,26,34
1562024467.43982,20,25,28,59,200,40,22,28
1562024467.454815,20,25,32,63,188,41,23,25
1562024467.477144,20,26,33,62,212,37,21,29
1562024467.499488,20,27,35,64,212,35,19,29
1562024467.523056,20,26,34,68,208,33,18,29
1562024467.537292,18,24,35,73,206,31,20,27
1562024467.55981,21,28,39,67,214,29,18,27
1562024467.574715,20,26,37,64,191,30,18,20
1562024467.597274,20,25,35,62,211,30,19,20
1562024467.619754,21,24,37,57,229,35,22,21
1562024467.634751,20,24,36,47,247,34,21,28
1562024467.657336,19,20,33,42,239,35,22,29
1562024467.679919,19,21,34,43,246,34,22,28
1562024467.694941,20,21,34,44,232,36,23,29
1562024467.717335,19,20,32,46,241,30,21,29
1562024467.73973,22,21,30,45,221,33,22,22
1562024467.75481,22,21,28,49,230,31,21,19
1562024467.777238,24,21,28,55,224,30,24,20
1562024467.799779,22,22,31,55,241,28,22,19
1562024467.814878,25,27,38,58,272,33,26,22
1562024467.837378,26,28,41,67,258,33,28,24
1562024467.859924,27,28,41,72,283,41,30,26
1562024467.874882,29,29,42,68,288,44,30,29
1562024467.897369,30,32,44,83,296,48,33,30
1562024467.919933,30,30,40,86,262,48,32,28
1562024467.934907,28,29,38,82,268,48,31,27
1562024467.957378,33,32,41,85,266,45,32,28
1562024467.97975,32,32,39,86,288,44,30,25
1562024467.994934,32,30,34,74,267,40,28,25
1562024468.017559,32,31,35,75,261,39,27,24
1562024468.039847,38,38,34,78,275,42,32,30
1562024468.054941,37,38,31,71,276,40,32,30
1562024468.077396,39,40,40,81,248,41,34,31
1562024468.099952,44,44,42,85,265,42,36,33
1562024468.123025,49,47,40,79,255,40,37,35
1562024468.137516,48,45,45,76,238,39,34,33
1562024468.159724,46,44,45,84,242,40,33,31
1562024468.183051,46,46,52,79,241,40,32,33
1562024468.197237,46,50,56,97,251,44,35,37
1562024468.219778,51,58,70,118,250,47,36,39
1562024468.243098,50,56,68,117,245,44,36,41
1562024468.257287,60,63,72,115,270,50,38,45
1562024468.279856,61,63,65,114,273,52,41,43
1562024468.302932,57,59,63,95,253,46,35,40
1562024468.317176,53,54,51,79,258,49,36,39
1562024468.339673,53,54,48,82,266,53,36,36
1562024468.363012,49,51,43,79,201,52,36,35
1562024468.377217,46,47,43,75,202,53,32,35
1562024468.399747,47,46,37,72,196,57,34,36
1562024468.423302,43,39,35,62,196,52,31,33
1562024468.437218,40,39,36,60,216,47,29,34
1562024468.459767,34,31,36,59,234,44,26,31
1562024468.482875,36,32,33,57,233,42,27,33
1562024468.497293,33,29,33,55,226,38,23,31
1562024468.519993,31,26,31,50,213,38,24,29
1562024468.543353,31,26,30,44,181,38,25,27
1562024468.55741,24,24,27,49,149,35,23,25
1562024468.57976,20,23,30,45,138,30,23,21
1562024468.603078,19,23,30,45,111,32,24,20
1562024468.617353,19,23,30,44,136,35,25,20
1562024468.639809,17,21,30,50,159,34,22,22
1562024468.663,20,21,34,42,164,35,22,22
1562024468.677261,21,20,31,43,176,36,22,22
1562024468.699769,21,19,31,49,203,34,21,22
1562024468.72306,21,19,32,54,193,32,21,22
1562024468.737395,24,21,32,54,178,31,21,22
1562024468.759667,21,22,30,59,181,30,20,20
1562024468.783186,22,23,32,61,190,35,19,20
1562024468.797267,22,27,32,61,171,36,21,20
1562024468.819669,22,25,31,56,166,35,23,19
1562024468.843286,19,25,30,63,215,40,22,18
1562024468.865548,20,26,38,65,230,43,24,18
1562024468.879727,20,25,37,62,222,40,25,18
1562024468.903787,21,22,38,59,235,40,24,16
1562024468.91728,21,26,41,63,234,40,20,18
1562024468.939895,22,26,46,62,198,37,21,18
1562024468.963003,24,25,38,60,183,35,20,19
1562024468.977401,24,26,38,60,171,33,18,21
1562024468.999702,24,27,38,63,171,33,22,22
1562024469.022982,25,26,36,67,197,33,22,21
1562024469.037458,24,26,30,57,176,34,22,21
1562024469.06032,22,25,30,52,162,32,20,22
1562024469.083139,21,25,31,53,176,35,20,21
1562024469.105413,20,23,34,50,173,32,17,19
1562024469.12045,20,22,34,42,185,32,19,21
1562024469.143126,19,21,33,44,204,33,19,20
1562024469.165278,20,21,34,46,216,34,20,20
1562024469.18795,20,22,36,57,223,34,19,19
1562024469.202999,20,21,38,67,233,35,20,19
1562024469.22534,19,22,37,66,209,34,18,19
1562024469.240484,22,25,40,73,208,33,18,20
1562024469.263342,21,24,38,74,257,32,17,18
1562024469.285587,22,24,36,72,260,31,19,19
1562024469.300529,26,27,43,70,239,30,19,20
1562024469.323006,28,26,42,71,241,30,21,22
1562024469.345638,29,26,41,66,250,29,21,23
1562024469.360659,36,28,45,65,216,28,25,28
1562024469.383107,38,29,50,67,208,28,24,29
1562024469.405526,37,26,42,71,228,29,25,30
1562024469.420487,40,28,42,73,235,30,25,33
1562024469.443123,42,25,40,71,217,29,25,31
1562024469.465488,39,27,42,90,215,31,23,28
1562024469.480566,39,25,37,89,198,31,25,29
1562024469.502941,38,25,37,82,185,30,25,31
1562024469.525471,34,24,38,80,163,30,24,29
1562024469.539617,30,26,37,83,158,31,25,34
1562024469.563179,31,25,37,67,132,32,28,34
1562024469.58542,32,27,42,69,142,31,27,32
1562024469.599766,35,28,41,67,135,31,29,31
1562024469.623778,35,31,43,65,147,30,29,29
1562024469.645259,36,29,44,63,157,30,29,24
1562024469.659217,35,30,42,65,146,29,26,26
1562024469.682291,33,27,35,63,167,30,26,27
1562024469.704601,32,27,36,66,180,29,22,26
1562024469.718921,31,24,33,78,213,32,22,26
1562024469.742656,30,23,32,80,258,34,23,28
1562024469.765382,31,23,30,84,270,36,23,26
1562024469.779752,28,24,32,82,258,36,24,26
1562024469.803001,25,24,34,81,263,36,24,24
1562024469.82544,25,24,35,72,230,35,23,24
1562024469.839782,25,23,36,68,195,33,22,22
1562024469.863033,21,23,34,60,188,29,24,21
1562024469.885519,21,22,34,58,184,30,21,20
1562024469.899801,22,24,33,53,163,32,21,20
1562024469.923022,20,25,32,51,185,31,21,21
1562024469.945332,20,26,31,48,160,32,21,22
1562024469.959794,20,27,34,45,151,32,22,23
1562024469.982861,20,28,34,44,148,33,22,22
1562024470.00558,20,28,38,53,156,33,23,22
1562024470.027925,21,26,37,55,127,32,25,22
1562024470.043135,21,25,36,57,152,33,24,20
1562024470.06525,20,27,38,64,149,36,23,19
1562024470.087807,20,27,39,65,164,34,23,19
1562024470.103198,19,24,35,61,157,34,23,19
1562024470.12559,19,28,40,64,166,36,21,20
1562024470.147979,18,29,41,61,171,34,22,21
1562024470.162884,19,23,37,54,175,32,22,23
1562024470.184743,19,25,37,61,172,34,24,23
1562024470.207113,19,25,36,70,198,41,23,24
1562024470.2221,19,23,33,67,207,41,22,22
1562024470.244613,21,27,38,77,195,42,22,23
1562024470.267325,22,27,37,81,207,44,21,22
1562024470.282494,23,26,39,91,271,46,21,22
1562024470.305385,24,27,41,87,265,42,22,22
1562024470.327922,27,29,43,84,265,41,23,21
1562024470.342973,27,26,38,79,267,44,25,22
1562024470.365484,31,32,39,84,265,43,26,21
1562024470.387847,36,35,38,71,192,42,26,21
1562024470.402991,41,37,37,66,172,41,26,23
1562024470.426128,44,40,39,67,214,41,25,24
1562024470.448046,48,45,41,66,206,37,23,23
1562024470.46292,49,42,39,57,217,39,22,24
1562024470.485511,47,39,41,65,221,42,25,26
1562024470.508055,47,38,40,65,237,40,23,26
1562024470.522503,54,36,37,71,206,46,26,28
1562024470.55299,59,34,36,74,218,51,30,29
1562024470.568509,59,38,40,83,207,53,30,28
1562024470.589734,59,40,37,76,219,50,26,27
1562024470.60643,59,39,40,84,228,54,28,27
1562024470.627357,52,38,41,79,222,51,27,24
1562024470.649931,46,35,40,80,216,47,23,24
1562024470.666427,43,31,36,73,226,45,25,25
1562024470.687203,43,32,36,88,253,56,28,24
1562024470.709614,38,34,40,89,234,56,29,25
1562024470.732342,37,32,38,97,278,54,28,25
1562024470.747277,31,32,40,98,294,58,30,24
1562024470.763923,35,36,48,106,303,64,32,24
1562024470.786538,34,37,47,105,287,57,31,25
1562024470.807361,35,36,46,106,290,55,29,23
1562024470.823906,33,36,45,108,239,62,31,26
1562024470.846539,33,35,42,104,228,57,29,25
1562024470.86735,28,31,36,95,205,50,25,26
1562024470.884132,28,27,35,86,229,47,26,25
1562024470.906622,26,23,31,83,251,47,28,26
1562024470.927288,26,25,36,75,249,37,24,25
1562024470.949746,25,23,36,73,232,38,24,24
1562024470.966584,25,25,37,67,272,36,26,25
1562024470.987195,20,27,41,60,262,40,26,26
1562024471.009839,20,26,39,57,255,38,24,26
1562024471.026639,22,26,37,61,257,36,26,25
1562024471.047376,22,27,38,64,260,35,25,25
1562024471.079045,21,25,37,61,228,36,23,24
1562024471.086435,22,23,34,72,186,35,25,22
1562024471.107392,23,29,44,80,154,34,25,24
1562024471.12995,21,27,42,75,170,37,25,24
1562024471.14661,21,29,43,77,192,36,26,23
1562024471.167299,20,29,42,83,198,41,27,23
1562024471.189736,20,30,45,78,213,37,25,24
1562024471.20478,19,25,37,64,211,37,24,23
1562024471.227281,19,26,39,73,218,38,22,23
1562024471.249782,19,23,37,81,203,39,24,25
1562024471.265182,21,24,37,84,181,31,24,25
1562024471.287242,24,26,37,84,167,32,22,37
1562024471.309726,42,26,36,84,164,33,26,62
1562024471.324872,74,31,38,71,135,29,37,148
1562024471.347214,120,36,46,66,122,28,55,248
1562024471.369744,128,37,48,62,132,30,61,268
1562024471.38479,129,36,46,61,134,29,62,269
1562024471.407267,125,36,45,60,144,28,60,267
1562024471.429831,140,37,44,60,142,27,64,278
1562024471.444829,111,34,40,55,142,25,51,207
1562024471.467199,107,33,39,51,114,24,46,199
1562024471.4899,108,33,41,54,128,28,50,220
1562024471.504756,111,34,46,63,131,32,51,227
1562024471.527436,73,27,45,66,128,34,42,190
1562024471.549775,65,30,43,67,123,35,38,179
1562024471.564698,61,31,40,66,135,36,35,163
1562024471.587182,107,35,40,71,119,37,52,237
1562024471.609701,111,35,36,66,109,34,56,238
1562024471.624708,113,37,37,74,114,37,55,225
1562024471.647205,117,33,37,83,113,36,56,230
1562024471.669794,116,31,39,84,116,34,57,233
1562024471.684912,79,28,40,76,111,29,38,140
1562024471.707197,72,30,40,74,101,32,31,127
1562024471.72966,70,26,39,65,106,30,31,126
1562024471.744722,62,29,36,50,120,29,30,127
1562024471.767185,67,32,34,46,114,35,31,120
1562024471.789752,62,29,31,55,126,35,29,95
1562024471.804754,61,30,31,59,131,33,37,140
1562024471.82721,58,32,30,67,133,32,37,139
1562024471.849728,54,29,29,70,126,33,36,125
1562024471.864694,50,26,31,77,122,30,34,123
1562024471.887248,52,29,30,70,111,32,33,130
1562024471.909746,50,28,30,75,108,31,24,78
1562024471.932334,52,29,32,71,87,32,27,77
1562024471.947299,55,27,31,68,88,32,26,77
1562024471.9698,51,28,30,63,85,31,27,76
1562024471.992158,45,26,31,69,98,30,26,65
1562024472.007373,51,30,35,69,105,32,29,62
1562024472.029843,46,26,32,67,143,30,27,59
1562024472.052284,41,27,34,66,147,30,27,59
1562024472.067269,40,28,39,65,167,33,25,54
1562024472.089616,36,27,39,65,225,33,26,51
1562024472.120821,26,22,40,55,273,36,27,40
1562024472.127362,25,25,41,56,274,35,26,32
1562024472.149865,23,25,42,61,296,34,25,28
1562024472.172323,23,24,41,66,292,32,26,29
1562024472.187285,23,25,44,65,254,33,26,26
1562024472.209856,22,26,41,67,226,34,24,26
1562024472.232394,22,25,43,72,241,35,24,23
1562024472.247266,21,27,44,69,226,38,24,23
1562024472.269971,21,26,40,74,244,40,25,23
1562024472.29239,21,27,36,94,267,41,24,22
1562024472.307281,22,28,38,93,263,45,24,20
1562024472.329707,21,27,37,92,238,47,22,20
1562024472.352384,22,25,35,91,257,47,22,20
1562024472.3672,20,25,37,92,274,45,23,18
1562024472.38977,21,28,41,74,253,43,21,22
1562024472.412262,22,27,38,71,274,35,24,22
1562024472.427318,25,28,37,70,288,35,23,22
1562024472.449754,25,27,39,86,297,35,24,22
1562024472.472264,25,27,38,75,281,36,22,23
1562024472.487192,25,26,38,78,289,39,26,21
1562024472.509767,23,25,36,79,288,40,24,20
1562024472.53235,22,24,36,80,276,37,24,21
1562024472.547205,21,25,34,65,234,34,24,22
1562024472.569909,19,25,33,72,210,35,24,22
1562024472.592374,20,21,26,65,242,35,20,21
1562024472.607213,21,21,27,63,210,37,19,23
1562024472.629833,21,22,36,66,201,40,19,23
1562024472.652359,20,21,38,71,203,39,20,23
1562024472.66722,19,19,41,72,203,41,20,21
1562024472.68984,18,20,42,77,148,43,21,21
1562024472.712083,19,20,41,79,162,48,23,21
1562024472.735057,21,18,35,86,163,49,27,27
1562024472.749749,45,24,36,84,158,52,31,64
1562024472.772297,93,29,38,81,153,53,56,267
1562024472.787195,120,34,43,77,143,51,67,325
1562024472.809847,149,40,44,76,117,47,75,365
1562024472.832299,174,46,49,87,143,47,79,385
1562024472.854861,221,50,52,96,156,49,98,460
1562024472.869898,212,48,48,93,153,45,88,385
1562024472.892289,201,46,43,92,147,43,80,341
1562024472.914684,183,42,43,93,135,41,73,302
1562024472.929658,217,47,50,78,102,45,92,352
1562024472.952671,174,43,48,65,85,44,73,249
1562024472.974918,169,44,48,68,108,46,72,243
1562024472.989619,174,48,50,65,109,46,75,252
1562024473.012309,182,49,49,68,120,48,83,269
1562024473.034758,108,40,36,71,123,41,57,167
1562024473.049829,94,37,32,71,125,36,53,155
1562024473.072293,103,37,36,74,114,39,61,174
1562024473.094841,87,30,34,74,117,39,58,157
1562024473.109758,68,28,34,70,116,36,46,119
1562024473.132374,64,25,32,62,109,35,43,107
1562024473.155005,61,24,32,57,115,35,44,101
1562024473.169742,42,24,28,62,122,26,28,53
1562024473.192352,35,23,29,75,141,34,20,37
1562024473.214869,42,22,27,75,137,34,21,35
1562024473.229584,42,21,31,76,172,36,23,38
1562024473.252195,42,21,31,86,192,43,21,37
1562024473.274809,39,24,33,80,196,47,23,33
1562024473.289802,38,24,32,72,247,43,23,30
1562024473.312318,27,26,35,71,268,48,22,27
1562024473.335402,26,28,34,74,255,49,21,23
1562024473.34978,25,29,35,63,260,42,21,22
1562024473.37212,26,25,31,70,276,44,23,22
1562024473.395367,24,26,31,72,225,45,26,24
1562024473.409853,22,24,31,69,238,44,26,23
1562024473.432365,22,26,33,67,246,43,27,26
1562024473.455409,23,26,33,70,267,45,27,24
1562024473.469688,22,27,34,58,283,47,25,25
1562024473.492213,24,28,35,57,318,48,23,27
1562024473.515449,24,27,36,61,299,46,22,29
1562024473.52983,23,24,32,59,345,47,20,27
1562024473.552354,21,23,33,54,320,48,20,28
1562024473.575326,21,21,39,62,307,40,21,30
1562024473.589799,22,21,38,62,288,35,19,29
1562024473.6123,23,21,35,59,307,38,20,28
1562024473.635454,25,21,36,60,271,36,21,29
1562024473.649767,27,24,43,62,274,34,22,28
1562024473.672403,26,24,37,56,331,37,22,31
1562024473.695648,25,24,39,56,336,39,24,29
1562024473.709869,23,26,39,55,317,39,24,28
1562024473.732275,21,27,38,58,332,44,25,27
1562024473.755456,19,25,30,56,340,45,23,27
1562024473.769819,20,26,35,56,265,44,23,23
1562024473.792456,20,24,32,57,262,44,19,28
1562024473.815429,21,24,34,55,276,41,21,29
1562024473.837941,24,26,34,48,245,36,19,29
1562024473.852168,24,27,35,48,224,34,19,30
1562024473.875548,23,25,30,52,230,33,18,26
1562024473.898085,27,28,30,49,217,35,21,23
1562024473.912333,28,28,31,54,199,38,22,31
1562024473.935576,27,25,30,63,189,38,23,32
1562024473.957854,25,24,28,63,201,39,23,30
1562024473.972341,28,31,32,57,190,40,23,31
1562024473.995262,28,32,34,56,196,34,21,30
1562024474.017928,29,32,34,54,190,30,19,21
1562024474.032244,29,32,34,45,208,37,20,24
1562024474.055408,30,31,36,50,200,37,20,31
1562024474.078038,29,27,33,49,246,37,21,30
1562024474.09228,25,25,31,44,249,44,23,31
1562024474.11538,23,24,31,41,257,45,24,31
1562024474.137949,27,26,38,57,238,38,22,28
1562024474.152319,29,27,40,52,234,42,24,27
1562024474.175404,43,36,42,57,235,42,25,29
1562024474.197968,57,48,44,62,237,40,26,32
1562024474.212397,61,51,43,62,233,38,24,32
1562024474.235378,63,52,38,50,237,47,26,33
1562024474.257967,62,51,34,56,291,49,29,31
1562024474.272202,55,46,32,51,251,49,28,36
1562024474.295522,48,39,32,51,247,46,26,33
1562024474.318299,53,43,34,55,270,53,26,35
1562024474.33232,50,43,34,54,276,49,25,36
1562024474.355414,50,44,36,60,274,50,24,35
1562024474.377979,51,44,37,65,288,52,24,29
1562024474.392231,44,40,34,61,270,52,24,33
1562024474.415433,31,32,33,69,275,48,25,30
1562024474.438095,29,31,35,72,278,47,26,28
1562024474.452475,28,29,36,61,220,43,23,27
1562024474.475966,24,26,35,58,204,41,22,27
1562024474.497931,25,28,36,60,233,40,22,26
1562024474.512259,25,28,37,49,196,35,23,33
1562024474.535421,25,28,33,41,175,32,23,33
1562024474.558073,23,29,31,45,178,30,22,35
1562024474.572266,22,29,32,46,203,27,22,34
1562024474.595447,22,26,33,56,213,30,23,30
1562024474.617967,21,24,31,59,213,32,21,30
1562024474.632283,22,24,32,63,216,36,23,31
1562024474.655534,21,22,34,62,226,36,24,29
1562024474.678007,22,25,32,60,219,38,26,30
1562024474.692221,20,26,33,61,211,37,27,34
1562024474.715323,21,25,31,63,228,36,27,32
1562024474.738012,21,25,34,62,236,32,24,33
1562024474.760502,21,25,33,68,232,30,24,33
1562024474.775425,21,23,32,67,224,31,22,40
1562024474.797904,22,22,32,58,202,36,25,38
1562024474.820532,21,22,31,60,208,40,25,34
1562024474.835497,20,21,30,56,191,43,26,32
1562024474.857885,19,23,29,59,208,44,27,39
1562024474.880501,19,22,28,63,213,46,26,31
1562024474.895368,22,24,27,61,233,41,24,31
1562024474.918057,22,25,28,54,211,37,24,31
1562024474.940497,23,25,27,56,231,35,25,35
1562024474.955381,22,24,25,47,227,34,27,27
1562024474.978041,24,25,26,49,235,29,26,27
1562024475.000498,22,23,28,53,207,29,28,28
1562024475.015429,22,24,28,52,225,28,28,31
1562024475.037861,20,23,30,56,215,28,28,34
1562024475.060589,22,24,35,61,206,27,25,33
1562024475.075529,20,23,35,58,226,30,24,33
1562024475.097973,19,24,33,68,261,33,21,32
1562024475.120648,19,24,37,67,239,33,21,29
1562024475.135395,21,25,37,66,231,32,17,21
1562024475.158273,22,27,33,64,238,35,22,21
1562024475.180518,26,29,34,62,204,34,23,25
1562024475.195488,28,26,34,52,179,31,24,32
1562024475.218051,32,28,31,55,185,33,25,33
1562024475.24035,32,27,30,56,189,36,27,32
1562024475.255025,34,27,31,66,209,36,25,34
1562024475.277962,49,28,31,68,280,41,27,46
1562024475.300474,50,29,32,70,301,46,26,43
1562024475.314716,48,28,31,67,313,45,27,46
1562024475.33833,52,29,32,73,330,46,26,52
1562024475.360586,51,28,30,75,315,47,27,53
1562024475.374938,40,27,32,77,300,42,27,46
1562024475.398435,40,29,34,79,279,40,29,46
1562024475.420022,43,27,34,80,282,40,27,44
1562024475.434098,40,29,38,84,283,38,27,38
1562024475.457271,42,29,39,77,283,37,26,39
1562024475.479913,37,25,36,73,231,38,24,34
1562024475.494661,38,25,35,67,216,36,22,34
1562024475.517984,35,28,38,72,223,40,25,33
1562024475.540483,32,25,35,56,191,41,27,33
1562024475.554802,34,27,34,51,196,38,27,33
1562024475.578504,36,29,34,53,188,38,27,33
1562024475.600551,37,29,34,57,252,38,27,32
1562024475.614834,35,27,30,57,238,36,25,32
1562024475.63781,35,28,28,61,241,36,21,31
1562024475.660546,32,26,28,62,247,37,24,34
1562024475.683034,30,27,26,62,248,37,22,34
1562024475.697994,27,25,28,62,183,38,24,35
1562024475.72032,29,27,32,57,163,37,25,35
1562024475.743125,28,26,36,69,202,35,25,38
1562024475.758085,27,27,40,75,204,35,26,35
1562024475.780672,26,26,43,74,204,37,26,34
1562024475.803261,26,26,41,74,202,39,27,32
1562024475.820349,24,24,40,76,233,37,26,31
1562024475.839818,24,23,36,62,204,36,26,32
1562024475.862418,24,20,34,60,192,37,24,29
1562024475.879519,26,24,34,66,203,35,27,31
1562024475.899913,23,24,36,72,246,36,25,30
1562024475.922419,24,23,36,96,232,37,28,34
1562024475.939148,23,24,35,97,241,39,27,30
1562024475.960463,23,25,34,95,233,38,27,30
1562024475.982297,19,23,32,94,246,37,26,33
1562024475.99894,22,23,30,90,238,38,25,36
1562024476.019847,22,24,31,81,258,39,26,35
1562024476.042397,22,26,29,86,271,39,25,34
1562024476.059289,23,27,29,84,265,36,26,41
1562024476.079755,24,30,28,83,245,39,26,37
1562024476.10235,23,30,31,89,222,38,26,35
1562024476.127011,25,31,39,74,187,38,26,39
1562024476.139805,26,32,40,68,152,38,26,39
1562024476.162437,27,29,40,73,159,39,24,31
1562024476.178973,28,29,45,77,152,36,24,40
1562024476.19958,30,29,45,77,138,36,24,46
1562024476.22152,31,27,36,77,138,35,22,59
1562024476.238004,60,30,38,75,138,36,28,116
1562024476.258912,65,32,38,75,128,35,30,126
1562024476.281883,67,29,34,70,131,36,30,129
1562024476.298118,79,30,34,65,142,39,35,160
1562024476.319615,110,36,38,72,137,45,52,218
1562024476.342335,107,34,38,72,133,43,56,219
1562024476.358953,107,33,42,70,125,43,56,219
1562024476.379659,119,34,40,79,126,43,58,228
1562024476.402227,125,33,38,72,120,39,57,217
1562024476.419018,101,27,38,65,104,30,42,180
1562024476.439838,90,27,36,67,106,31,37,155
1562024476.464047,100,27,31,67,121,32,39,174
1562024476.478849,88,30,45,61,117,31,42,185
1562024476.499757,72,32,47,63,114,33,42,175
1562024476.522305,90,37,46,66,137,35,53,212
1562024476.539134,96,36,47,68,136,34,55,228
1562024476.559706,104,38,52,62,123,36,58,224
1562024476.582239,117,36,44,69,134,38,55,226
1562024476.599098,130,38,47,70,136,38,59,246
1562024476.621352,130,33,46,65,117,42,53,205
1562024476.642289,139,35,45,61,119,47,55,201
1562024476.664715,130,32,38,65,119,50,53,193
1562024476.679846,122,33,34,55,109,50,52,171
1562024476.702374,111,29,28,63,94,48,49,160
1562024476.72482,101,29,29,66,102,44,46,166
1562024476.739952,109,29,30,75,106,43,39,154
1562024476.76242,108,28,30,72,113,36,38,164
1562024476.784793,119,34,33,70,133,36,52,212
1562024476.799762,123,34,32,69,147,37,51,199
1562024476.82228,120,33,32,64,141,38,51,194
1562024476.844966,96,31,32,53,133,35,50,191
1562024476.85987,90,31,36,64,135,39,49,179
1562024476.882458,75,25,35,62,112,35,33,118
1562024476.904867,65,27,36,57,95,33,34,126
1562024476.919843,61,27,39,68,95,34,32,110
1562024476.942355,63,27,40,67,98,34,31,103
1562024476.964799,91,29,40,69,117,36,46,148
1562024476.979739,82,27,39,70,122,37,46,144
1562024477.002298,81,25,38,68,118,41,45,134
1562024477.024852,81,25,35,59,116,41,45,131
1562024477.039722,79,26,36,62,146,45,45,127
1562024477.06226,51,24,34,56,160,44,28,68
1562024477.084976,46,24,35,57,159,45,28,62
1562024477.099673,42,25,38,63,170,46,26,54
1562024477.122518,42,25,37,66,192,44,25,49
1562024477.144756,40,24,37,69,177,42,24,48
1562024477.159787,28,23,37,70,192,39,21,31
1562024477.182229,25,24,40,72,198,39,20,32
1562024477.204613,25,23,41,73,226,34,20,34
1562024477.219658,26,25,40,70,217,39,20,33
1562024477.242312,23,23,37,64,217,38,21,33
1562024477.264798,23,23,40,58,195,40,24,32
1562024477.279793,23,23,37,52,199,40,24,26
1562024477.302425,24,24,36,48,194,38,25,30
1562024477.324717,20,23,36,53,202,32,25,28
1562024477.339713,22,23,35,57,230,34,24,28
1562024477.362271,21,26,29,68,265,30,23,28
1562024477.384808,20,26,33,87,291,35,23,30
1562024477.399766,22,26,32,89,306,48,23,29
1562024477.422423,23,28,37,91,307,59,24,31
1562024477.444708,23,28,39,90,312,58,25,31
1562024477.459845,25,28,39,88,361,66,26,31
1562024477.482405,25,30,38,84,352,64,25,33
1562024477.504865,24,28,37,110,347,57,25,28
1562024477.519793,23,26,33,109,359,48,24,28
1562024477.542556,22,25,33,120,346,51,24,29
1562024477.564817,21,23,33,116,295,41,22,28
1562024477.5873,21,20,31,108,280,40,22,32
1562024477.602368,20,20,31,106,300,42,24,33
1562024477.624817,19,22,37,114,295,50,25,34
1562024477.647345,18,26,36,114,330,51,24,33
1562024477.662319,21,28,39,116,300,51,26,37
1562024477.684709,23,28,40,120,308,51,25,35
1562024477.707194,25,29,41,101,268,47,23,34
1562024477.722231,24,27,35,90,262,43,21,32
1562024477.744853,25,25,39,102,347,56,25,32
1562024477.767335,23,24,38,98,349,65,26,29
1562024477.782541,24,25,38,103,354,69,28,31
1562024477.804946,22,24,37,104,363,71,32,32
1562024477.827356,23,26,37,106,363,73,34,33
1562024477.842454,22,24,34,90,243,63,34,33
1562024477.864795,22,26,32,89,232,58,34,40
1562024477.8876,21,28,33,77,203,53,34,36
1562024477.902318,23,29,36,71,167,51,31,37
1562024477.924839,22,28,35,79,182,46,30,37
1562024477.947273,22,30,35,88,206,43,31,39
1562024477.962187,22,29,39,91,215,44,32,38
1562024477.984794,21,26,37,91,215,51,31,37
1562024478.007311,24,26,34,89,214,53,32,39
1562024478.022065,33,24,34,78,178,50,33,54
1562024478.04467,35,24,36,64,135,55,32,54
1562024478.06727,40,27,40,61,122,52,37,86
1562024478.082243,57,27,40,57,117,54,44,133
1562024478.104798,95,29,47,70,124,58,57,258
1562024478.127286,101,31,49,72,138,62,61,272
1562024478.142025,102,32,48,66,123,56,60,273
1562024478.164771,102,29,44,80,143,56,59,272
1562024478.187272,103,33,53,91,171,49,61,277
1562024478.202221,106,33,52,84,170,43,66,260
1562024478.224783,103,32,51,89,163,41,65,260
1562024478.247313,103,31,50,95,169,40,67,264
1562024478.262337,106,32,50,90,152,38,67,264
1562024478.284793,107,29,41,83,115,36,62,247
1562024478.307409,70,26,41,84,120,37,49,152
1562024478.322325,63,27,39,81,111,81,104,122
1562024478.344613,67,27,41,72,86,87,116,132
1562024478.367288,62,25,41,60,86,92,115,119
1562024478.382418,55,25,42,66,96,93,116,113
1562024478.404746,70,30,37,70,82,92,119,159
1562024478.42733,74,29,38,77,86,63,80,160
1562024478.442459,69,31,37,76,83,63,76,144
1562024478.464819,69,31,36,80,75,71,86,147
1562024478.487236,65,30,33,81,72,78,92,152
1562024478.502406,47,27,32,76,75,84,89,99
1562024478.524722,43,27,33,71,79,88,85,93
1562024478.547258,51,25,32,89,83,85,71,97
1562024478.57043,55,24,32,84,89,71,63,90
1562024478.584612,52,24,31,80,81,67,73,77
1562024478.607303,52,23,32,81,81,66,90,71
1562024478.630611,54,24,32,74,76,61,101,75
1562024478.644846,45,26,28,51,78,65,111,75
1562024478.667315,56,27,32,53,71,66,114,70
1562024478.690517,53,27,31,48,74,62,102,54
1562024478.704794,55,29,31,40,67,55,88,53
1562024478.727519,52,28,32,48,68,48,76,50
1562024478.750762,52,26,36,58,76,40,72,42
1562024478.764792,33,28,38,56,82,42,65,42
1562024478.787376,32,29,39,57,82,43,65,40
1562024478.810491,26,26,37,57,87,40,61,38
1562024478.824762,23,26,35,53,95,41,56,34
1562024478.847408,26,26,32,45,100,42,37,31
1562024478.870628,24,25,28,43,129,46,42,32
1562024478.884707,23,22,28,43,141,50,41,33
1562024478.907224,27,24,29,43,147,49,41,44
1562024478.930345,27,26,30,38,151,49,41,37
1562024478.944786,26,26,28,35,159,50,60,38
1562024478.967195,26,24,27,36,152,42,56,38
1562024478.990536,27,26,30,39,172,35,54,37
1562024479.004733,24,23,34,44,169,36,54,22
1562024479.027388,25,22,33,42,166,35,55,27
1562024479.050628,26,26,35,48,153,31,31,26
1562024479.064942,29,27,34,51,144,33,35,27
1562024479.087307,29,29,31,59,161,41,38,27
1562024479.110446,29,29,28,56,166,42,36,28
1562024479.124805,27,30,31,59,161,43,34,31
1562024479.147394,26,25,31,56,174,45,34,31
1562024479.170402,24,25,30,57,168,48,29,30
1562024479.18488,23,23,30,53,194,48,29,30
1562024479.207179,23,27,35,58,202,48,30,30
1562024479.230579,24,27,35,57,204,46,31,30
1562024479.244559,23,28,35,60,194,44,31,30
1562024479.267307,21,28,34,60,210,43,29,30
1562024479.290575,23,27,37,61,169,43,27,33
1562024479.304876,22,22,32,59,162,51,26,38
1562024479.327355,23,23,34,62,176,54,26,33
1562024479.350573,29,24,32,56,201,55,28,32
1562024479.364826,30,23,32,53,207,53,29,31
1562024479.387326,34,23,34,44,190,47,29,33
1562024479.410678,34,23,33,45,190,40,31,26
1562024479.424867,32,23,32,44,206,41,32,27
1562024479.447205,28,21,32,52,272,40,29,27
1562024479.470617,31,23,34,54,282,43,28,34
1562024479.492923,26,22,29,55,281,45,30,29
1562024479.507243,25,24,27,53,281,42,26,32
1562024479.530639,26,22,25,55,273,42,24,31
1562024479.552997,25,24,27,47,199,42,26,33
1562024479.56757,24,23,27,45,207,49,27,31
1562024479.590584,26,23,28,46,234,53,26,33
1562024479.613014,27,23,29,44,249,59,25,31
1562024479.627226,27,23,28,38,277,60,26,32
1562024479.650724,30,23,30,45,268,69,24,30
1562024479.6731,29,26,32,50,238,66,24,33
1562024479.68795,27,25,32,59,236,62,24,31
1562024479.710536,27,25,32,62,216,59,24,31
1562024479.732833,30,26,35,70,191,60,25,31
1562024479.747632,29,26,33,73,217,54,26,32
1562024479.769614,29,24,38,72,218,48,26,23
1562024479.792186,29,25,37,71,217,50,25,27
1562024479.807083,29,24,39,69,238,48,24,28
1562024479.82965,27,23,36,62,226,44,23,27
1562024479.852269,26,28,43,55,213,38,23,26
1562024479.86722,26,28,35,55,245,43,21,27
1562024479.890008,29,28,36,47,240,46,23,28
1562024479.912964,26,28,34,49,230,46,24,28
1562024479.927769,26,29,34,44,225,51,23,30
1562024479.950635,30,26,26,47,263,50,21,29
1562024479.972955,30,27,28,51,238,45,21,33
1562024479.987257,27,28,26,51,223,43,20,29
1562024480.010613,26,27,28,48,212,53,20,28
1562024480.040472,25,29,27,56,246,48,20,28
1562024480.04731,21,26,23,54,193,50,22,28
1562024480.070603,21,26,24,54,189,50,22,30
1562024480.093029,22,25,25,53,199,46,21,29
1562024480.107267,24,26,27,56,213,33,21,30
1562024480.130458,25,24,31,52,169,33,20,29
1562024480.153103,27,26,33,53,175,30,19,34
1562024480.167293,27,26,36,49,194,29,19,27
1562024480.190609,25,25,35,49,191,32,20,29
1562024480.212905,24,24,35,48,195,33,21,30
1562024480.227285,26,23,34,53,191,35,25,30
1562024480.250553,24,22,35,56,201,46,25,34
1562024480.272956,24,23,34,55,187,51,26,34
1562024480.286778,27,24,36,55,176,55,27,34
1562024480.309558,27,26,38,56,164,57,25,32
1562024480.332075,24,25,36,50,161,56,24,39
1562024480.34638,23,26,36,48,217,48,25,31
1562024480.370115,23,27,38,49,209,45,25,31
1562024480.3927,20,26,39,50,266,56,25,32
1562024480.415309,20,25,39,55,263,59,28,35
1562024480.430447,21,25,39,57,289,60,26,33
1562024480.452849,19,23,38,58,237,60,25,33
1562024480.475484,21,26,36,59,265,61,24,33
1562024480.490625,20,25,34,63,231,47,23,32
1562024480.513029,20,26,30,60,243,41,20,32
1562024480.535441,19,26,30,61,242,38,23,31
1562024480.550655,20,25,28,60,259,42,25,32
1562024480.573143,17,21,26,59,250,40,26,32
1562024480.595367,18,22,24,55,231,39,25,31
1562024480.610582,19,21,24,51,235,39,25,34
1562024480.632945,20,21,25,52,243,42,23,30
1562024480.655466,22,23,27,55,230,41,23,30
1562024480.670751,23,24,26,52,211,37,20,31
1562024480.692927,24,24,27,55,240,38,22,36
1562024480.715616,23,25,26,61,234,39,22,32
1562024480.730583,23,25,27,64,284,46,22,31
1562024480.752939,23,25,26,61,283,45,21,33
1562024480.775437,22,27,29,62,285,46,21,34
1562024480.790562,21,24,26,57,284,46,19,28
1562024480.820511,21,24,28,54,281,45,24,29
1562024480.835546,21,23,25,54,210,39,24,34
1562024480.850426,19,25,25,61,204,35,26,31
1562024480.872894,20,21,24,77,232,40,26,30
1562024480.895396,20,23,27,83,212,44,28,30
1562024480.909794,20,23,27,83,207,42,25,36
1562024480.932925,20,24,27,76,195,42,24,30
1562024480.955686,22,21,28,71,199,43,23,30
1562024480.969822,22,22,28,55,218,39,27,34
1562024480.993095,21,25,30,51,217,40,26,33
1562024481.015372,21,25,31,51,222,41,27,26
1562024481.029765,22,29,34,52,256,38,26,27
1562024481.052935,19,28,32,59,264,37,27,31
1562024481.074894,21,29,33,58,220,36,25,29
1562024481.097404,20,25,32,56,219,28,28,30
1562024481.119788,20,25,30,59,217,34,26,31
1562024481.134735,19,20,28,57,178,38,28,32
1562024481.165031,21,26,29,53,169,38,27,28
1562024481.173997,19,24,27,50,181,38,28,26
1562024481.194814,21,25,29,53,236,38,25,32
1562024481.217165,21,28,30,54,244,33,28,31
1562024481.233985,21,29,28,60,261,30,27,29
1562024481.254877,23,28,30,61,280,31,26,30
1562024481.277256,23,30,30,61,295,32,26,32
1562024481.293719,23,31,28,56,252,31,26,30
1562024481.314787,25,27,29,51,251,31,24,28
1562024481.337071,25,28,28,46,251,28,24,29
1562024481.353785,22,27,25,52,240,27,25,32
1562024481.376373,25,28,27,55,211,27,26,31
1562024481.39712,25,25,27,57,208,27,27,27
1562024481.413809,24,28,31,57,191,29,26,28
1562024481.434753,25,29,41,61,171,35,25,27
1562024481.457261,25,27,42,58,156,37,24,24
1562024481.47404,23,27,51,65,152,35,21,22
1562024481.494891,21,27,53,68,182,40,20,21
1562024481.517281,21,30,62,82,196,48,22,21
1562024481.53403,22,28,62,82,187,51,30,20
1562024481.554822,22,29,67,83,186,56,51,18
1562024481.577378,25,37,93,91,184,63,79,20
1562024481.594032,28,41,94,103,147,65,88,20
1562024481.614944,30,39,87,96,125,63,89,21
1562024481.63724,29,39,84,92,117,60,91,20
1562024481.653939,33,40,89,89,106,55,82,20
1562024481.67669,45,31,56,81,103,51,58,22
1562024481.697334,46,30,54,59,99,47,43,24
1562024481.714246,44,30,53,62,90,78,120,28
1562024481.734909,44,31,56,80,90,92,127,32
1562024481.757251,42,31,42,81,108,92,128,32
1562024481.774046,33,31,45,78,111,91,128,31
1562024481.79498,78,43,56,88,110,98,140,67
1562024481.817325,98,46,61,82,109,91,112,88
1562024481.833854,100,45,57,80,105,82,129,94
1562024481.854971,101,44,59,99,69,84,134,99
1562024481.877307,102,44,63,103,59,86,139,100
1562024481.892302,76,29,55,99,57,106,152,83
1562024481.914891,48,28,50,102,50,105,144,61
1562024481.937355,46,27,52,94,44,105,124,53
1562024481.952295,53,30,50,94,46,106,131,47
1562024481.97486,82,40,48,106,62,115,145,75
1562024482.005636,91,42,58,105,62,104,125,85
1562024482.012177,100,43,58,105,64,95,112,93
1562024482.034661,101,44,61,102,88,98,135,96
1562024482.057358,107,42,58,86,92,100,137,98
1562024482.072318,106,36,54,69,85,99,148,116
1562024482.094784,105,37,44,68,86,90,151,123
1562024482.117268,98,34,48,78,84,88,150,120
1562024482.132412,99,35,47,83,61,86,141,121
1562024482.154908,106,42,47,86,85,83,135,126
1562024482.179359,90,41,49,82,85,83,108,94
1562024482.192163,85,39,54,98,84,80,106,87
1562024482.214947,85,39,53,86,86,84,109,83
1562024482.237312,91,39,49,83,83,81,92,79
1562024482.252311,74,34,50,82,49,83,82,72
1562024482.274692,74,33,52,83,44,77,73,71
1562024482.297212,78,34,41,62,43,73,74,56
1562024482.31977,78,34,40,63,38,66,71,53
1562024482.334921,71,33,42,67,33,67,76,64
1562024482.357271,68,33,42,58,31,64,76,61
1562024482.379705,62,32,38,56,29,60,75,67
1562024482.39488,61,32,39,59,28,58,68,66
1562024482.417232,59,32,33,56,29,56,65,67
1562024482.439744,56,30,34,52,30,54,101,67
1562024482.454636,56,29,38,61,32,54,109,65
1562024482.477386,57,29,38,64,31,50,110,59
1562024482.499813,44,28,41,68,30,51,108,54
1562024482.514942,82,35,45,77,36,69,135,72
1562024482.537278,88,40,45,76,35,70,111,75
1562024482.559677,104,42,49,98,40,71,114,98
1562024482.574907,111,42,84,113,47,105,125,169
1562024482.597279,114,41,88,111,46,110,129,177
1562024482.619743,92,35,86,108,42,99,101,172
1562024482.634984,88,31,87,108,43,95,103,168
1562024482.657134,66,26,84,92,126,100,95,158
1562024482.679872,50,24,53,72,158,63,76,79
1562024482.69476,39,23,45,75,220,61,68,58
1562024482.717323,36,29,49,73,235,71,65,53
1562024482.739806,31,32,53,79,245,75,51,48
1562024482.754887,27,31,50,87,251,65,41,39
1562024482.777328,25,37,49,88,250,63,38,35
1562024482.799802,25,40,49,90,216,65,35,35
1562024482.814847,23,37,49,112,263,56,35,29
1562024482.837302,22,40,45,125,279,56,31,30
1562024482.859785,27,42,52,128,287,67,33,31
1562024482.874823,27,41,54,149,298,79,42,40
1562024482.897145,28,39,52,149,331,74,41,47
1562024482.919693,31,39,52,135,309,73,43,50
1562024482.934766,30,34,55,174,354,71,41,50
1562024482.95728,28,36,53,206,378,63,43,50
1562024482.979836,29,36,54,196,384,50,35,43
1562024482.994904,29,36,58,218,407,60,38,45
1562024483.017334,28,35,59,229,399,62,36,48
1562024483.048104,28,36,57,215,405,64,36,48
1562024483.054927,28,34,54,187,377,65,36,58
1562024483.077311,25,29,51,205,379,69,41,66
1562024483.099865,27,45,69,226,358,65,41,64
1562024483.114951,26,48,70,226,365,62,44,60
1562024483.137272,27,49,74,235,305,59,45,60
1562024483.159858,29,48,74,235,346,51,45,54
1562024483.176397,30,49,75,243,377,47,44,49
1562024483.197205,28,36,60,243,356,42,40,46
1562024483.219809,28,32,57,242,375,50,37,49
1562024483.242411,27,30,52,220,381,53,35,49
1562024483.257246,24,33,51,221,328,55,36,49
1562024483.279647,24,33,50,211,337,54,35,53
1562024483.302296,23,32,43,175,328,53,35,51
1562024483.3173,23,31,42,167,290,46,35,51
1562024483.339738,22,30,43,196,298,44,37,50
1562024483.370537,22,29,44,219,336,42,37,52
1562024483.377218,19,25,42,200,275,45,34,39
1562024483.399745,21,26,42,260,279,49,34,41
1562024483.422417,21,28,44,270,278,49,34,42
1562024483.437294,24,27,42,260,324,53,36,55
1562024483.459763,26,26,39,250,368,56,35,53
1562024483.482383,27,27,41,289,372,55,38,54
1562024483.497188,26,26,42,244,397,54,39,52
1562024483.519563,24,24,41,233,398,55,39,52
1562024483.542227,21,24,37,227,346,48,34,38
1562024483.557219,22,23,40,217,307,47,34,54
1562024483.579783,25,28,55,178,331,47,34,54
1562024483.602361,26,27,53,158,291,44,33,60
1562024483.61732,28,29,52,149,286,44,32,57
1562024483.639796,28,29,58,138,300,45,32,56
1562024483.662309,25,31,57,127,247,44,32,36
1562024483.677441,22,28,41,133,200,38,26,34
1562024483.699732,21,29,43,130,190,36,25,21
1562024483.722367,23,30,44,135,200,35,27,28
1562024483.737225,25,36,67,128,159,37,27,28
1562024483.759769,27,38,67,123,154,35,24,28
1562024483.782674,28,38,69,81,136,37,23,27
1562024483.79713,29,38,68,74,139,38,23,27
1562024483.819753,30,38,74,67,123,36,19,21
1562024483.842297,28,36,87,88,129,32,20,24
1562024483.857348,29,37,92,89,111,33,19,23
1562024483.895275,29,36,93,85,92,31,19,29
1562024483.902132,30,35,96,92,101,28,19,32
1562024483.917169,33,35,93,93,98,30,21,35
1562024483.939707,36,29,59,93,89,38,19,37
1562024483.963028,37,30,75,108,125,42,20,37
1562024483.977231,41,35,77,113,133,44,21,36
1562024483.999707,56,39,74,108,120,46,22,37
1562024484.022907,54,38,72,105,119,50,21,35
1562024484.037277,57,40,78,101,119,46,23,39
1562024484.059851,57,35,55,90,75,40,25,44
1562024484.083125,58,31,47,86,59,43,25,50
1562024484.097247,52,28,59,89,51,47,33,58
1562024484.119826,53,28,59,90,49,46,33,60
1562024484.14313,51,28,59,76,49,49,42,56
1562024484.157416,77,29,63,88,45,51,61,71
1562024484.17977,86,29,68,90,44,75,91,76
1562024484.202921,83,28,66,90,44,79,97,72
1562024484.225517,85,29,65,101,42,85,107,73
1562024484.239656,86,31,72,143,39,84,111,75
1562024484.263053,66,31,72,139,40,89,119,64
1562024484.285436,58,31,68,139,38,88,107,56
1562024484.299667,81,34,66,140,37,89,107,61
1562024484.323035,92,33,64,137,36,84,116,60
1562024484.345353,93,31,54,99,38,87,129,67
1562024484.359728,95,31,51,105,33,86,124,66
1562024484.382993,94,30,52,104,32,78,187,68
1562024484.405591,79,31,50,100,34,76,250,91
1562024484.419727,75,37,55,92,35,83,272,105
1562024484.450359,78,37,59,83,34,90,280,113
1562024484.465522,82,37,67,108,34,115,300,122
1562024484.479576,84,38,67,110,36,111,268,123
1562024484.502953,85,36,66,114,37,112,214,120
1562024484.525467,80,31,68,120,39,112,199,111
1562024484.539583,104,43,67,163,41,112,203,148
1562024484.562827,99,46,56,141,43,88,198,143
1562024484.592996,96,48,60,147,40,86,197,145
1562024484.599689,102,51,60,154,37,86,194,147
1562024484.622893,99,51,62,170,35,93,188,146
1562024484.645595,77,48,67,134,38,94,172,100
1562024484.659682,89,48,70,139,36,93,146,114
1562024484.683055,100,50,71,147,37,99,145,148
1562024484.705516,112,50,77,143,38,101,145,152
1562024484.71956,120,58,79,129,40,102,170,150
1562024484.743035,122,53,77,128,36,101,166,148
1562024484.765442,119,54,75,147,35,101,161,168
1562024484.779872,112,55,71,129,36,99,157,143
1562024484.802866,121,53,63,133,36,103,172,130
1562024484.82541,135,58,59,138,37,93,137,159
1562024484.839734,138,61,48,133,36,98,129,165
1562024484.862952,141,59,49,117,39,97,125,134
1562024484.885634,143,55,52,121,40,98,154,132
1562024484.899847,131,52,53,151,40,90,134,148
1562024484.923226,115,40,44,140,38,89,126,120
1562024484.95301,108,35,46,150,39,70,123,125
1562024484.959782,97,33,43,141,35,65,118,125
1562024484.983138,89,33,39,138,38,53,68,119
1562024485.006027,75,35,35,91,39,48,97,128
1562024485.019902,65,30,31,83,55,47,94,128
1562024485.042924,56,27,30,58,94,48,90,114
1562024485.065594,52,29,33,49,116,51,92,126
1562024485.079804,51,31,35,54,142,52,91,127
1562024485.103002,40,34,44,63,185,47,49,86
1562024485.125535,34,36,53,86,200,83,47,79
1562024485.14791,31,40,58,87,219,91,47,77
1562024485.163036,31,40,58,96,256,93,42,41
1562024485.185306,31,41,64,109,306,96,40,34
1562024485.207787,30,47,78,179,360,107,44,50
1562024485.222929,29,48,80,190,377,86,40,53
1562024485.245334,26,45,77,195,365,78,35,52
1562024485.268072,30,50,88,194,352,84,40,56
1562024485.283476,31,54,89,200,339,84,41,72
1562024485.305469,28,47,75,164,339,74,42,68
1562024485.328003,29,45,70,163,339,72,43,67
1562024485.343005,32,48,84,170,352,76,46,66
1562024485.365246,27,43,75,246,448,68,42,74
1562024485.387972,27,38,68,248,457,66,45,67
1562024485.403077,26,38,65,241,441,63,38,60
1562024485.425475,27,37,66,247,440,67,37,60
1562024485.447878,25,33,47,256,479,67,35,64
1562024485.462918,26,32,43,229,452,80,41,55
1562024485.485512,25,31,41,242,426,85,35,43
1562024485.50796,25,29,42,246,468,90,35,44
1562024485.523076,25,28,40,235,455,87,36,45
1562024485.545522,26,28,43,220,440,86,35,41
1562024485.567983,26,31,44,196,391,74,34,46
1562024485.58305,26,34,45,170,405,65,33,48
1562024485.605345,27,34,48,159,317,60,34,48
1562024485.627982,26,35,45,153,315,55,34,45
1562024485.642393,25,33,41,147,264,52,36,43
1562024485.665502,25,30,42,112,253,50,31,31
1562024485.688127,26,27,43,103,238,49,32,28
1562024485.702403,23,25,42,95,261,46,29,26
1562024485.725369,25,23,41,80,276,46,26,30
1562024485.748214,25,25,42,78,295,56,24,32
1562024485.762203,27,25,40,75,286,56,26,31
1562024485.785507,26,24,39,74,269,58,26,28
1562024485.807969,26,30,40,66,247,59,27,32
1562024485.822416,25,30,41,75,260,65,28,32
1562024485.845496,26,31,42,78,242,55,28,31
1562024485.868045,23,31,42,81,267,52,25,31
1562024485.882222,24,30,38,85,282,51,25,32
1562024485.905319,24,25,32,86,288,57,24,29
1562024485.928058,25,29,32,78,269,54,29,28
1562024485.942338,23,31,32,75,278,62,29,26
1562024485.965475,26,31,36,72,255,64,29,27
1562024485.987977,26,32,40,64,233,68,28,27
1562024486.002132,26,32,42,97,289,71,30,28
1562024486.025458,24,32,42,108,302,81,26,24
1562024486.048026,27,28,42,108,283,75,27,31
1562024486.062374,26,32,50,110,269,73,28,30
1562024486.085646,26,31,51,113,318,71,28,29
1562024486.108039,27,31,49,91,270,74,27,31
1562024486.130571,28,32,48,89,256,59,26,30
1562024486.145485,26,34,48,94,257,59,26,27
1562024486.167977,28,32,39,96,275,61,28,29
1562024486.190587,31,32,39,93,242,62,30,34
1562024486.205429,34,34,43,92,229,59,30,36
1562024486.22792,40,36,46,82,218,59,34,39
1562024486.250545,41,35,49,78,214,62,33,37
1562024486.265478,39,35,48,88,202,59,31,36
1562024486.287938,39,37,46,96,196,56,30,33
1562024486.309821,43,41,50,98,252,50,33,32
1562024486.326314,64,64,58,102,271,75,51,46
1562024486.347234,73,71,58,100,280,89,56,52
1562024486.369817,75,72,59,91,271,94,59,54
1562024486.386568,82,76,60,78,261,106,66,59
1562024486.407239,103,100,58,99,212,125,86,73
1562024486.429693,102,94,48,104,210,115,83,73
1562024486.446786,97,91,47,109,214,114,83,71
1562024486.467305,119,115,70,159,228,125,95,84
1562024486.489779,116,113,72,161,223,117,91,81
1562024486.506453,99,93,71,147,231,98,74,71
1562024486.527304,94,95,70,152,232,98,70,67
1562024486.549721,94,94,70,154,230,90,69,65
1562024486.566427,67,64,45,102,263,80,52,46
1562024486.587302,64,64,41,96,261,78,50,45
1562024486.609802,59,61,40,101,276,72,47,41
1562024486.626274,46,45,42,84,278,65,39,32
1562024486.6472,39,42,41,72,272,59,34,32
1562024486.669631,29,37,39,71,251,41,27,30
1562024486.68657,27,33,37,69,259,37,26,29
1562024486.707093,24,31,34,61,237,46,23,32
1562024486.729701,23,28,31,54,242,45,20,32
1562024486.746503,23,29,36,62,264,47,21,30
1562024486.767315,20,25,41,69,270,55,23,28
1562024486.789794,21,26,42,77,263,56,23,28
1562024486.806437,22,24,43,81,275,50,24,29
1562024486.834917,20,22,41,85,263,55,24,28
1562024486.849731,21,23,36,83,240,68,26,27
1562024486.866378,24,25,37,71,201,68,23,28
1562024486.887187,25,25,35,72,198,82,24,32
1562024486.909753,26,25,36,68,172,89,24,28
1562024486.92645,26,27,40,68,169,88,24,27
1562024486.94743,25,25,39,64,190,82,23,27
1562024486.969669,24,28,32,74,207,86,28,51
1562024486.986495,24,28,32,70,215,95,32,51
1562024487.00725,23,27,31,74,222,98,32,51
1562024487.029856,23,26,25,76,227,98,32,55
1562024487.052273,26,27,26,82,214,101,33,57
1562024487.067336,25,23,28,74,277,95,30,38
1562024487.08987,24,23,29,81,310,76,27,35
1562024487.112285,24,23,29,77,322,76,29,39
1562024487.127283,24,25,30,77,313,81,31,33
1562024487.151672,22,26,31,74,310,73,30,28
1562024487.17231,22,25,29,76,244,74,30,45
1562024487.187295,22,25,29,64,227,77,29,46
1562024487.209697,20,24,30,68,232,82,26,47
1562024487.232367,23,23,30,70,249,76,26,48
1562024487.254869,22,25,30,64,246,83,26,48
1562024487.269804,20,24,29,61,262,105,29,37
1562024487.292287,22,24,28,66,261,117,30,37
1562024487.307308,22,27,33,64,235,108,31,32
1562024487.337347,19,26,33,66,254,108,29,32
1562024487.35214,19,26,34,71,267,103,28,33
1562024487.3674,21,26,36,74,256,80,24,30
1562024487.389719,20,26,37,77,256,56,25,30
1562024487.41232,22,25,36,77,288,52,26,29
1562024487.427237,22,26,38,70,274,57,27,31
1562024487.449737,23,24,38,68,280,70,28,31
1562024487.472323,24,24,37,65,292,77,30,30
1562024487.487218,23,25,37,61,274,79,28,30
1562024487.509859,25,26,38,56,236,81,28,31
1562024487.53222,30,30,37,64,234,76,29,33
1562024487.547288,32,32,37,66,226,66,28,33
1562024487.569712,31,33,39,81,248,68,26,29
1562024487.592306,38,38,41,85,259,74,30,38
1562024487.607154,37,38,38,83,260,71,31,39
1562024487.629808,34,35,37,79,262,76,29,36
1562024487.652349,33,34,35,75,269,78,30,36
1562024487.667388,37,37,35,59,232,71,35,38
1562024487.689927,36,34,34,54,229,64,34,30
1562024487.712221,41,36,35,63,252,66,33,31
1562024487.727187,43,39,35,64,262,59,38,37
1562024487.749828,45,42,37,66,249,55,40,37
1562024487.780487,46,45,43,76,269,63,42,39
1562024487.787199,47,51,48,77,254,61,44,42
1562024487.809809,50,54,50,76,261,68,45,45
1562024487.832152,51,57,53,81,238,81,47,43
1562024487.847324,50,57,54,82,250,89,46,44
1562024487.869876,46,53,50,72,237,83,41,42
1562024487.892364,44,47,45,73,244,84,40,45
1562024487.907416,37,43,45,94,242,80,39,41
1562024487.929903,31,38,57,97,236,70,32,38
1562024487.952295,30,37,62,94,226,64,29,37
1562024487.974906,29,38,63,99,215,71,29,36
1562024487.989787,24,34,61,99,234,69,28,27
1562024488.01232,27,33,60,81,248,92,27,25
1562024488.034992,26,30,44,70,244,91,27,30
1562024488.049776,24,27,35,70,236,87,28,29
1562024488.072279,25,26,32,66,266,86,29,28
1562024488.094796,26,27,38,71,253,108,26,27
1562024488.109607,22,27,36,62,241,93,29,29
1562024488.132314,22,27,36,65,257,98,30,26
1562024488.154709,22,28,37,66,261,108,30,29
1562024488.169854,21,30,36,64,234,109,30,28
1562024488.192289,23,28,31,51,254,93,31,30
1562024488.21485,24,27,29,52,242,111,29,31
1562024488.229825,23,26,28,47,222,108,30,26
1562024488.252324,23,25,35,57,234,103,29,26
1562024488.274892,24,23,35,64,240,101,27,31
1562024488.289758,22,22,36,76,216,109,25,30
1562024488.312336,22,22,38,76,190,85,25,28
1562024488.33529,22,22,39,75,192,81,23,28
1562024488.349684,24,20,36,67,248,78,26,35
1562024488.372207,22,22,37,72,258,83,26,31
1562024488.39488,22,24,37,65,270,64,28,33
1562024488.409804,21,24,35,63,267,64,27,36
1562024488.432581,23,25,34,67,276,68,29,52
1562024488.454751,23,26,29,72,241,80,28,50
1562024488.469805,24,25,31,63,264,70,28,51
1562024488.500504,24,24,31,68,257,70,28,56
1562024488.514846,24,25,31,70,262,73,31,54
1562024488.529833,22,25,33,66,291,94,30,38
1562024488.552355,21,25,33,66,273,84,29,37
1562024488.574906,21,23,31,65,249,90,30,41
1562024488.589852,19,23,30,57,236,94,30,33
1562024488.612319,19,21,30,65,248,91,26,32
1562024488.634833,20,24,29,70,225,66,27,34
1562024488.649846,22,23,33,80,223,100,34,41
1562024488.672365,21,25,34,83,213,98,33,40
1562024488.694782,23,26,33,81,252,95,34,48
1562024488.709883,24,25,34,78,266,106,34,49
1562024488.73223,23,23,40,81,260,107,33,50
1562024488.755051,24,26,39,76,273,76,26,44
1562024488.77801,24,24,37,88,310,92,29,40
1562024488.792335,22,23,43,94,302,99,31,29
1562024488.823117,24,24,42,90,278,100,32,29
1562024488.829796,23,25,36,86,299,112,31,31
1562024488.852317,22,24,39,82,291,111,30,27
1562024488.874717,25,24,41,69,261,101,30,29
1562024488.891494,26,25,38,63,251,100,25,30
1562024488.912258,26,27,38,69,273,108,25,30
1562024488.934895,28,28,37,67,249,95,25,33
1562024488.958053,30,28,34,65,283,110,27,33
1562024488.972413,29,28,33,62,270,121,26,32
1562024488.994971,32,33,39,65,255,118,27,32
1562024489.018086,31,31,44,61,257,99,25,31
1562024489.032275,30,32,45,63,246,104,26,25
1562024489.054969,28,31,45,60,191,94,29,32
1562024489.077871,29,31,46,66,260,73,28,33
1562024489.10054,29,28,44,62,277,73,28,34
1562024489.114863,30,28,41,60,274,83,28,36
1562024489.137871,33,27,43,56,277,77,27,36
1562024489.152268,36,28,46,61,286,87,24,32
1562024489.17508,39,29,47,51,235,92,26,36
1562024489.197985,37,26,44,61,211,94,27,33
1562024489.212283,37,26,44,69,182,97,29,33
1562024489.234711,34,24,48,73,178,95,33,34
1562024489.258005,35,25,52,99,171,90,35,36
1562024489.272444,39,30,58,100,154,90,36,35
1562024489.294875,48,34,58,98,189,98,36,38
1562024489.31783,49,34,61,100,194,95,37,38
1562024489.332367,48,35,55,98,229,99,33,37
1562024489.35467,45,33,49,67,281,93,31,36
1562024489.378007,44,28,40,70,294,86,30,33
1562024489.392262,40,28,43,67,291,88,35,31
1562024489.414949,48,30,38,68,328,99,36,30
1562024489.438016,56,32,40,79,320,94,43,42
1562024489.452326,62,35,38,86,281,100,44,44
1562024489.474997,70,38,42,91,279,107,46,46
1562024489.498013,70,35,40,97,269,99,47,53
1562024489.512355,70,38,41,90,233,94,46,54
1562024489.534786,72,39,43,86,280,96,44,47
1562024489.557985,76,38,55,90,296,94,48,50
1562024489.572305,71,35,58,107,314,86,50,49
1562024489.595217,109,61,61,102,302,88,47,51
1562024489.617924,118,71,65,112,316,74,52,52
1562024489.632374,122,78,66,110,258,79,49,54
1562024489.654819,123,79,61,100,232,77,45,74
1562024489.677997,127,82,57,80,181,89,43,99
1562024489.692458,144,83,60,81,182,86,43,146
1562024489.714861,154,77,61,77,125,91,38,171
1562024489.737907,161,71,64,83,127,97,41,193
1562024489.752289,157,71,62,90,140,106,42,187
1562024489.774721,155,69,63,93,135,104,41,183
1562024489.798077,110,46,56,90,144,108,40,148
1562024489.812463,88,42,51,84,146,117,40,118
1562024489.833948,68,42,50,76,130,113,41,82
1562024489.85706,69,41,48,89,106,103,83,81
1562024489.879554,69,39,44,90,131,107,100,64
1562024489.894684,70,40,47,94,135,109,102,64
1562024489.917453,61,38,49,93,137,119,123,86
1562024489.940065,57,35,47,98,151,129,131,83
1562024489.954701,55,33,50,94,159,128,112,78
1562024489.977893,46,34,51,86,146,121,100,74
1562024490.000699,50,34,56,94,143,128,113,74
1562024490.014633,51,33,54,95,163,117,107,71
1562024490.03794,49,30,48,91,149,108,103,70
1562024490.060471,51,33,45,80,154,121,113,72
1562024490.074923,49,31,45,81,198,139,114,73
1562024490.09813,44,30,40,77,199,136,108,80
1562024490.120476,42,30,38,87,190,137,99,62
1562024490.134963,41,32,40,93,197,155,99,59
1562024490.158027,47,31,40,90,211,167,97,60
1562024490.180384,48,30,42,100,186,176,118,60
1562024490.194819,50,29,42,95,175,176,116,50
1562024490.217907,49,29,43,98,167,174,116,43
1562024490.24039,61,29,42,99,166,195,142,61
1562024490.254639,59,28,44,105,177,261,145,66
1562024490.278039,61,29,44,104,158,258,128,64
1562024490.300495,58,28,41,106,157,256,124,63
1562024490.314826,57,30,39,91,155,254,123,65
1562024490.338078,45,29,41,88,151,223,85,48
1562024490.360286,40,29,40,92,138,131,62,34
1562024490.37453,41,28,41,82,135,107,59,34
1562024490.397135,44,27,40,73,139,116,104,33
1562024490.41961,45,25,41,72,141,112,103,30
1562024490.433917,40,28,41,70,143,128,104,30
1562024490.45746,39,27,38,63,139,113,106,31
1562024490.480074,34,27,34,60,170,110,103,28
1562024490.494683,27,26,33,61,184,105,53,28
1562024490.517938,24,27,40,62,184,110,42,26
1562024490.540458,22,24,38,71,199,108,35,23
1562024490.55541,20,26,43,82,222,110,34,23
1562024490.577907,24,34,54,91,252,116,36,26
1562024490.600849,25,36,67,92,249,104,35,33
1562024490.614869,25,36,63,95,257,96,33,33
1562024490.637942,25,36,65,91,297,71,34,32
1562024490.660778,28,35,62,79,326,68,32,35
1562024490.674795,24,30,58,71,310,53,29,35
1562024490.697993,26,32,50,93,374,66,31,29
1562024490.720629,25,31,50,103,398,70,33,28
1562024490.734757,27,33,51,111,438,71,32,34
1562024490.757934,25,34,51,117,470,70,34,31
1562024490.780334,26,31,47,124,481,81,33,31
1562024490.794827,24,27,39,118,479,80,33,30
1562024490.817986,26,28,40,113,471,83,34,32
1562024490.840423,26,25,35,114,448,85,34,32
1562024490.86306,25,24,35,119,427,87,31,43
1562024490.877922,24,24,37,138,467,84,34,51
1562024490.900566,25,25,36,153,456,84,35,56
1562024490.922983,24,25,36,161,484,83,32,57
1562024490.938542,23,26,36,162,481,85,32,62
1562024490.960426,25,25,37,160,468,91,32,64
1562024490.983282,26,28,37,143,423,82,29,63
1562024490.998174,24,26,40,209,445,79,28,60
1562024491.020391,24,27,45,239,423,75,32,63
1562024491.0436,26,28,48,251,392,81,36,59
1562024491.057959,25,28,46,278,365,77,35,63
1562024491.080501,35,29,46,356,393,90,38,60
1562024491.103597,60,41,50,337,485,93,40,66
1562024491.117952,71,45,45,319,487,92,39,65
1562024491.140506,76,47,55,323,488,81,37,77
1562024491.163047,78,51,60,328,514,90,39,70
1562024491.178001,76,55,60,272,487,95,42,71
1562024491.200481,60,46,63,337,340,94,39,64
1562024491.222913,48,43,64,351,356,108,37,61
1562024491.237973,39,39,59,355,357,109,42,48
1562024491.260313,36,37,60,360,339,99,47,53
1562024491.282969,29,30,60,357,334,84,48,52
1562024491.297244,27,29,57,320,335,108,88,59
1562024491.32048,26,32,74,323,303,155,157,62
1562024491.343109,26,31,74,304,299,168,183,61
1562024491.357302,25,28,69,271,268,169,183,51
1562024491.380601,26,38,80,276,277,169,188,49
1562024491.410579,24,39,80,220,259,162,195,42
1562024491.417458,25,37,64,202,256,114,149,36
1562024491.440415,22,38,64,202,248,99,127,33
1562024491.462994,25,41,73,206,235,98,136,32
1562024491.47729,23,31,61,173,204,109,133,33
1562024491.500504,22,29,61,171,212,101,117,35
1562024491.523172,21,28,70,163,176,96,123,35
1562024491.544799,23,28,67,157,225,101,116,32
1562024491.561538,21,25,67,140,226,103,124,32
1562024491.582127,23,25,66,125,227,89,126,30
1562024491.604588,24,28,67,122,211,85,120,26
1562024491.62131,26,34,73,114,214,78,124,28
1562024491.642342,23,32,73,116,149,65,141,28
1562024491.66657,25,31,68,113,149,77,140,28
1562024491.681469,25,32,71,122,137,76,149,31
1562024491.70252,24,29,65,114,146,76,151,31
1562024491.724747,24,26,47,98,153,90,158,30
1562024491.741551,25,26,46,98,169,87,151,27
1562024491.762331,25,26,50,96,166,92,159,33
1562024491.784815,25,27,45,75,170,95,153,36
1562024491.80157,26,27,45,80,166,114,175,38
1562024491.82242,24,27,53,82,159,112,169,36
1562024491.844588,24,28,54,87,165,114,165,38
1562024491.861043,25,31,53,91,165,98,186,38
1562024491.881493,23,31,54,97,159,107,207,34
1562024491.903866,22,30,57,107,156,85,195,34
1562024491.920408,25,27,50,110,151,75,191,33
1562024491.941625,26,26,48,102,127,73,198,34
1562024491.964112,24,25,49,98,117,79,166,32
1562024491.98056,24,24,44,109,118,75,140,30
1562024492.002297,26,25,46,114,115,77,128,29
1562024492.024644,22,26,51,119,156,84,182,31
1562024492.041362,21,30,53,119,145,104,213,36
1562024492.062273,21,28,49,138,165,122,217,32
1562024492.084599,23,32,54,128,164,116,235,34
1562024492.101392,22,32,52,117,178,118,236,33
1562024492.122389,25,32,48,117,179,123,228,33
1562024492.144754,28,32,50,121,176,116,237,28
1562024492.161431,28,32,54,99,159,101,247,31
1562024492.182473,28,29,49,101,176,101,234,29
1562024492.204843,29,30,49,109,173,109,236,31
1562024492.221292,27,30,50,103,134,113,235,34
1562024492.242428,25,25,46,105,124,108,203,32
1562024492.272367,25,29,48,109,122,107,190,31
1562024492.281522,28,31,61,121,95,109,193,31
1562024492.302418,28,31,59,108,137,103,209,29
1562024492.324671,29,33,67,106,141,112,224,28
1562024492.341376,30,33,66,101,144,119,222,28
1562024492.362237,31,31,60,111,145,114,221,27
1562024492.384868,26,29,49,94,146,113,209,28
1562024492.401364,26,28,50,96,110,109,191,27
1562024492.422429,24,25,39,90,108,88,159,27
1562024492.444722,25,26,41,89,111,74,140,29
1562024492.461049,22,24,45,77,116,69,131,28
1562024492.481652,26,26,43,76,116,66,148,25
1562024492.503901,25,25,42,74,98,73,190,27
1562024492.518941,26,26,39,77,116,97,189,26
1562024492.541631,24,26,37,85,150,94,192,28
1562024492.564079,24,30,42,75,231,100,195,36
1562024492.57964,21,32,49,75,292,101,181,39
1562024492.602132,22,32,53,72,294,94,125,42
1562024492.624699,22,32,56,71,293,60,86,42
1562024492.641481,21,35,60,61,292,75,76,40
1562024492.662486,24,35,58,73,281,67,58,40
1562024492.684882,24,33,57,88,230,65,53,56
1562024492.707299,25,34,53,96,258,65,49,54
1562024492.722174,26,34,51,97,263,64,45,56
1562024492.744729,26,29,46,99,252,50,34,56
1562024492.767372,24,26,37,98,268,52,30,52
1562024492.782459,23,26,31,92,311,53,29,39
1562024492.805186,22,26,30,89,358,84,31,49
1562024492.827378,22,26,34,93,384,85,39,55
1562024492.842193,22,28,37,106,395,87,41,64
1562024492.872901,22,30,47,140,408,94,44,70
1562024492.887511,22,30,47,142,394,99,44,73
1562024492.902441,20,28,49,146,355,79,42,67
1562024492.924752,20,29,47,160,399,84,36,65
1562024492.947202,22,30,45,157,421,87,37,58
1562024492.962431,22,28,38,148,411,80,37,63
1562024492.984931,24,32,46,158,421,83,41,58
1562024493.007366,26,37,50,154,416,87,43,58
1562024493.02253,29,39,57,142,367,85,46,70
1562024493.044936,44,40,66,141,355,87,52,79
1562024493.067372,46,44,72,142,337,87,55,77
1562024493.082376,47,43,73,160,359,83,52,79
1562024493.104883,46,42,74,166,355,73,53,79
1562024493.127336,46,40,67,167,380,77,50,70
1562024493.142259,42,37,61,174,377,73,45,58
1562024493.164803,43,32,55,161,448,76,42,51
1562024493.187271,42,32,52,135,461,84,45,66
1562024493.202376,43,31,49,140,463,98,45,100
1562024493.224798,49,29,52,199,499,114,47,108
1562024493.255365,48,30,49,221,505,115,55,111
1562024493.262253,50,33,52,247,461,117,58,122
1562024493.28479,68,32,51,278,451,110,72,117
1562024493.307344,71,30,53,293,452,107,80,95
1562024493.324252,69,33,57,295,417,96,87,84
1562024493.344815,65,33,67,293,498,101,95,98
1562024493.367309,72,34,78,289,493,132,102,102
1562024493.382209,56,34,80,279,524,147,104,130
1562024493.404968,55,35,76,279,525,146,104,127
1562024493.427406,58,33,76,252,513,142,102,139
1562024493.442231,65,35,75,238,459,138,113,134
1562024493.473,56,32,59,222,483,106,112,131
1562024493.487291,55,34,55,199,436,91,107,103
1562024493.50228,54,34,59,194,455,91,105,112
1562024493.524535,53,38,55,212,438,92,107,110
1562024493.547209,51,36,50,246,452,91,98,118
1562024493.562104,51,35,52,241,425,99,91,117
1562024493.584693,64,39,49,238,437,108,89,118
1562024493.607223,67,40,44,239,416,115,102,127
1562024493.622356,69,39,43,214,460,120,109,119
1562024493.64481,64,39,41,156,398,122,95,106
1562024493.66734,62,40,40,176,381,116,95,93
1562024493.689736,52,36,46,174,393,117,92,96
1562024493.704729,42,33,46,143,387,118,76,73
1562024493.727387,36,31,46,148,363,110,57,64
1562024493.749773,35,31,48,159,385,123,58,60
1562024493.764699,40,33,52,168,491,130,63,67
1562024493.787365,36,31,51,197,524,123,57,58
1562024493.809705,42,31,54,213,561,114,56,55
1562024493.826524,41,32,56,207,558,128,54,56
1562024493.847248,41,30,51,208,589,116,52,54
1562024493.869858,40,34,49,178,501,109,40,41
1562024493.886574,45,38,47,145,424,103,42,49
1562024493.907399,42,37,43,126,398,111,36,47
1562024493.929804,43,39,45,137,371,96,34,50
1562024493.944825,53,41,47,127,324,100,40,56
1562024493.967285,50,38,46,129,329,100,40,57
1562024493.998084,49,35,44,125,333,110,39,45
1562024494.004843,48,36,48,117,326,97,40,46
1562024494.027373,56,36,44,106,384,111,41,41
1562024494.04985,60,43,48,106,406,128,39,44
1562024494.064431,76,57,49,109,400,130,47,79
1562024494.087174,80,63,57,110,377,126,50,81
1562024494.109779,81,62,55,106,368,136,50,81
1562024494.124696,81,65,56,96,367,136,50,84
1562024494.147317,97,81,58,89,311,116,50,84
1562024494.169835,96,83,57,72,307,115,46,55
1562024494.18478,92,78,50,78,340,111,43,54
1562024494.207263,103,85,52,76,324,100,45,56
1562024494.229688,109,89,52,68,247,86,45,53
1562024494.244912,97,78,46,64,248,83,41,43
1562024494.267185,87,67,46,70,240,75,35,40
1562024494.289775,89,73,58,72,223,70,37,38
1562024494.304733,81,68,60,76,256,68,34,40
1562024494.327339,70,60,60,82,257,75,33,38
1562024494.349836,67,60,66,88,268,104,34,41
