"[[ 45.774353  -15.196163   14.358702  ... -29.41806    -5.2249427
  -64.8344   ]
 [ 48.937553  -15.763266   13.07699   ... -38.43426    -8.665809
  -66.41764  ]
 [ 48.596836  -17.50526    12.578739  ... -39.00706    -8.298242
  -64.77977  ]

 [ 48.146366  -17.20749    12.079119  ... -40.32556    -7.502113
  -64.39058  ]
 [ 48.47513   -16.93283    12.199377  ... -40.535843   -8.020574
  -64.93898  ]
 [  1.8393481  -1.48189     1.26316   ...  -1.4288242  -1.972897
   -2.242144 ]]"
"[[ 45.774353  -15.196163   14.358702  ... -29.41806    -5.2249427
  -64.8344   ]
 [ 48.937553  -15.763266   13.07699   ... -38.43426    -8.665809
  -66.41764  ]
 [ 48.596836  -17.50526    12.578739  ... -39.00706    -8.298242
  -64.77977  ]
 ...
 [ 48.146366  -17.20749    12.079119  ... -40.32556    -7.502113
  -64.39058  ]
 [ 48.47513   -16.93283    12.199377  ... -40.535843   -8.020574
  -64.93898  ]
 [ 48.80386   -16.48818    12.342907  ... -40.539368   -8.9294405
  -65.2888   ]]"
"[[ 42.787292  -15.711364   16.935715  ... -22.17895   -10.028924
  -59.069103 ]
 [ 42.909008  -19.878782   18.30306   ... -22.09831   -15.717029
  -53.357327 ]
 [ 42.47159   -23.809397   19.304567  ... -18.561398  -18.12862
  -48.75363  ]
 ...
 [ 35.271797  -26.391212   23.73052   ...   1.4553002 -33.893524
  -22.772377 ]
 [ 35.576912  -26.310032   23.546679  ...   0.9791417 -34.037624
  -22.91535  ]
 [  9.418546   -7.392808    6.4733987 ...  -0.4654129  -6.5418096
   -6.8985443]]"
"[[ 4.2787292e+01 -1.5711364e+01  1.6935715e+01 ... -2.2178949e+01
  -1.0028924e+01 -5.9069103e+01]
 [ 4.2909008e+01 -1.9878782e+01  1.8303061e+01 ... -2.2098310e+01
  -1.5717029e+01 -5.3357327e+01]
 [ 4.2471588e+01 -2.3809397e+01  1.9304567e+01 ... -1.8561398e+01
  -1.8128620e+01 -4.8753632e+01]
 ...
 [ 3.5271797e+01 -2.6391212e+01  2.3730520e+01 ...  1.4553002e+00
  -3.3893524e+01 -2.2772377e+01]
 [ 3.5576912e+01 -2.6310032e+01  2.3546679e+01 ...  9.7914171e-01
  -3.4037624e+01 -2.2915350e+01]
 [ 3.6114017e+01 -2.6150402e+01  2.3213978e+01 ...  5.8715563e-02
  -3.4188583e+01 -2.3301706e+01]]"
"[[ 37.139343   -16.558443    16.005198   ... -14.329119   -16.913702
  -41.177505  ]
 [ 36.662495   -20.303318    18.362072   ...  -8.126342   -36.36581
  -22.081217  ]
 [ 36.59075    -22.388845    19.65876    ...  -4.2893763  -40.911827
  -15.992004  ]
 ...
 [ 34.867977   -22.92767     22.160904   ...   0.57976806 -40.008064
  -14.558761  ]
 [ 34.772743   -22.89253     22.06342    ...   0.5261003  -39.92032
  -14.38967   ]
 [ 23.71494    -17.31065     16.898804   ...   1.7424412  -28.630733
   -8.795419  ]]"
"[[ 37.139343   -16.558443    16.005198   ... -14.329119   -16.913702
  -41.177505  ]
 [ 36.662495   -20.303318    18.362072   ...  -8.126342   -36.36581
  -22.081217  ]
 [ 36.59075    -22.388845    19.65876    ...  -4.2893763  -40.911827
  -15.992004  ]
 ...
 [ 34.867977   -22.92767     22.160904   ...   0.57976806 -40.008064
  -14.558761  ]
 [ 34.772743   -22.89253     22.06342    ...   0.5261003  -39.92032
  -14.38967   ]
 [ 34.93503    -22.971       21.907375   ...   0.26840207 -39.863132
  -14.411185  ]]"
"[[ 37.139343   -16.558443    16.005198   ... -14.329119   -16.913702
  -41.177505  ]
 [ 36.662495   -20.303318    18.362072   ...  -8.126342   -36.36581
  -22.081217  ]
 [ 36.59075    -22.388845    19.65876    ...  -4.2893763  -40.911827
  -15.992004  ]
 ...
 [ 34.867977   -22.92767     22.160904   ...   0.57976806 -40.008064
  -14.558761  ]
 [ 34.772743   -22.89253     22.06342    ...   0.5261003  -39.92032
  -14.38967   ]
 [ 34.943443   -22.974398    21.906416   ...   0.263041   -39.86711
  -14.416627  ]]"
"[[ 37.139343   -16.558443    16.005198   ... -14.329119   -16.913702
  -41.177505  ]
 [ 36.662495   -20.303318    18.362072   ...  -8.126342   -36.36581
  -22.081217  ]
 [ 36.59075    -22.388845    19.65876    ...  -4.2893763  -40.911827
  -15.992004  ]
 ...
 [ 34.867977   -22.92767     22.160904   ...   0.57976806 -40.008064
  -14.558761  ]
 [ 34.772743   -22.89253     22.06342    ...   0.5261003  -39.92032
  -14.38967   ]
 [ 34.892563   -22.956179    21.92435    ...   0.31394216 -39.868904
  -14.3830385 ]]"
"[[ 37.139343   -16.558443    16.005198   ... -14.329119   -16.913702
  -41.177505  ]
 [ 36.662495   -20.303318    18.362072   ...  -8.126342   -36.36581
  -22.081217  ]
 [ 36.59075    -22.388845    19.65876    ...  -4.2893763  -40.911827
  -15.992004  ]
 ...
 [ 34.867977   -22.92767     22.160904   ...   0.57976806 -40.008064
  -14.558761  ]
 [ 34.772743   -22.89253     22.06342    ...   0.5261003  -39.92032
  -14.38967   ]
 [ 35.16911    -23.054573    21.725758   ...  -0.0567775  -39.83909
  -14.459012  ]]"
"[[ 37.139343   -16.558443    16.005198   ... -14.329119   -16.913702
  -41.177505  ]
 [ 36.662495   -20.303318    18.362072   ...  -8.126342   -36.36581
  -22.081217  ]
 [ 36.59075    -22.388845    19.65876    ...  -4.2893763  -40.911827
  -15.992004  ]
 ...
 [ 34.867977   -22.92767     22.160904   ...   0.57976806 -40.008064
  -14.558761  ]
 [ 34.772743   -22.89253     22.06342    ...   0.5261003  -39.92032
  -14.38967   ]
 [ 35.96719    -23.393778    21.285587   ...  -1.0479097  -39.664722
  -14.951661  ]]"
"[[ 37.139343   -16.558443    16.005198   ... -14.329119   -16.913702
  -41.177505  ]
 [ 36.662495   -20.303318    18.362072   ...  -8.126342   -36.36581
  -22.081217  ]
 [ 36.59075    -22.388845    19.65876    ...  -4.2893763  -40.911827
  -15.992004  ]
 ...
 [ 34.867977   -22.92767     22.160904   ...   0.57976806 -40.008064
  -14.558761  ]
 [ 34.772743   -22.89253     22.06342    ...   0.5261003  -39.92032
  -14.38967   ]
 [ 36.263752   -23.515514    21.10885    ...  -1.445165   -39.575188
  -15.130845  ]]"
"[[ 37.139343   -16.558443    16.005198   ... -14.329119   -16.913702
  -41.177505  ]
 [ 36.662495   -20.303318    18.362072   ...  -8.126342   -36.36581
  -22.081217  ]
 [ 36.59075    -22.388845    19.65876    ...  -4.2893763  -40.911827
  -15.992004  ]
 ...
 [ 34.867977   -22.92767     22.160904   ...   0.57976806 -40.008064
  -14.558761  ]
 [ 34.772743   -22.89253     22.06342    ...   0.5261003  -39.92032
  -14.38967   ]
 [ 36.49442    -23.603054    21.003178   ...  -1.7439767  -39.47438
  -15.350596  ]]"
"[[ 37.139343   -16.558443    16.005198   ... -14.329119   -16.913702
  -41.177505  ]
 [ 36.662495   -20.303318    18.362072   ...  -8.126342   -36.36581
  -22.081217  ]
 [ 36.59075    -22.388845    19.65876    ...  -4.2893763  -40.911827
  -15.992004  ]
 ...
 [ 34.867977   -22.92767     22.160904   ...   0.57976806 -40.008064
  -14.558761  ]
 [ 34.772743   -22.89253     22.06342    ...   0.5261003  -39.92032
  -14.38967   ]
 [ 36.719677   -23.687553    20.828453   ...  -2.1221251  -39.349907
  -15.517894  ]]"
"[[ 37.139343   -16.558443    16.005198   ... -14.329119   -16.913702
  -41.177505  ]
 [ 36.662495   -20.303318    18.362072   ...  -8.126342   -36.36581
  -22.081217  ]
 [ 36.59075    -22.388845    19.65876    ...  -4.2893763  -40.911827
  -15.992004  ]
 ...
 [ 34.867977   -22.92767     22.160904   ...   0.57976806 -40.008064
  -14.558761  ]
 [ 34.772743   -22.89253     22.06342    ...   0.5261003  -39.92032
  -14.38967   ]
 [ 36.387657   -23.532959    21.022      ...  -1.6065338  -39.51574
  -15.190305  ]]"
"[[ 37.139343   -16.558443    16.005198   ... -14.329119   -16.913702
  -41.177505  ]
 [ 36.662495   -20.303318    18.362072   ...  -8.126342   -36.36581
  -22.081217  ]
 [ 36.59075    -22.388845    19.65876    ...  -4.2893763  -40.911827
  -15.992004  ]
 ...
 [ 34.867977   -22.92767     22.160904   ...   0.57976806 -40.008064
  -14.558761  ]
 [ 34.772743   -22.89253     22.06342    ...   0.5261003  -39.92032
  -14.38967   ]
 [ 36.665157   -23.636322    20.808958   ...  -2.0669496  -39.348522
  -15.385966  ]]"
"[[ 37.139343   -16.558443    16.005198   ... -14.329119   -16.913702
  -41.177505  ]
 [ 36.662495   -20.303318    18.362072   ...  -8.126342   -36.36581
  -22.081217  ]
 [ 36.59075    -22.388845    19.65876    ...  -4.2893763  -40.911827
  -15.992004  ]
 ...
 [ 34.867977   -22.92767     22.160904   ...   0.57976806 -40.008064
  -14.558761  ]
 [ 34.772743   -22.89253     22.06342    ...   0.5261003  -39.92032
  -14.38967   ]
 [ 36.364956   -23.517962    21.0298     ...  -1.5801595  -39.526478
  -15.163283  ]]"
"[[ 37.139343   -16.558443    16.005198   ... -14.329119   -16.913702
  -41.177505  ]
 [ 36.662495   -20.303318    18.362072   ...  -8.126342   -36.36581
  -22.081217  ]
 [ 36.59075    -22.388845    19.65876    ...  -4.2893763  -40.911827
  -15.992004  ]
 ...
 [ 34.867977   -22.92767     22.160904   ...   0.57976806 -40.008064
  -14.558761  ]
 [ 34.772743   -22.89253     22.06342    ...   0.5261003  -39.92032
  -14.38967   ]
 [ 36.404217   -23.529171    20.99432    ...  -1.6489587  -39.50345
  -15.184304  ]]"
"[[ 37.139343   -16.558443    16.005198   ... -14.329119   -16.913702
  -41.177505  ]
 [ 36.662495   -20.303318    18.362072   ...  -8.126342   -36.36581
  -22.081217  ]
 [ 36.59075    -22.388845    19.65876    ...  -4.2893763  -40.911827
  -15.992004  ]
 ...
 [ 34.867977   -22.92767     22.160904   ...   0.57976806 -40.008064
  -14.558761  ]
 [ 34.772743   -22.89253     22.06342    ...   0.5261003  -39.92032
  -14.38967   ]
 [ 36.498005   -23.56913     20.926643   ...  -1.790483   -39.478104
  -15.23334   ]]"
"[[ 37.139343   -16.558443    16.005198   ... -14.329119   -16.913702
  -41.177505  ]
 [ 36.662495   -20.303318    18.362072   ...  -8.126342   -36.36581
  -22.081217  ]
 [ 36.59075    -22.388845    19.65876    ...  -4.2893763  -40.911827
  -15.992004  ]
 ...
 [ 34.867977   -22.92767     22.160904   ...   0.57976806 -40.008064
  -14.558761  ]
 [ 34.772743   -22.89253     22.06342    ...   0.5261003  -39.92032
  -14.38967   ]
 [ 36.59454    -23.601582    20.842907   ...  -1.9655527  -39.388794
  -15.308757  ]]"
"[[ 37.139343   -16.558443    16.005198   ... -14.329119   -16.913702
  -41.177505  ]
 [ 36.662495   -20.303318    18.362072   ...  -8.126342   -36.36581
  -22.081217  ]
 [ 36.59075    -22.388845    19.65876    ...  -4.2893763  -40.911827
  -15.992004  ]
 ...
 [ 34.867977   -22.92767     22.160904   ...   0.57976806 -40.008064
  -14.558761  ]
 [ 34.772743   -22.89253     22.06342    ...   0.5261003  -39.92032
  -14.38967   ]
 [ 36.735718   -23.664082    20.754768   ...  -2.1868815  -39.303192
  -15.446399  ]]"
"[[ 37.139343   -16.558443    16.005198   ... -14.329119   -16.913702
  -41.177505  ]
 [ 36.662495   -20.303318    18.362072   ...  -8.126342   -36.36581
  -22.081217  ]
 [ 36.59075    -22.388845    19.65876    ...  -4.2893763  -40.911827
  -15.992004  ]
 ...
 [ 34.867977   -22.92767     22.160904   ...   0.57976806 -40.008064
  -14.558761  ]
 [ 34.772743   -22.89253     22.06342    ...   0.5261003  -39.92032
  -14.38967   ]
 [ 36.97662    -23.765373    20.589214   ...  -2.6250708  -39.111687
  -15.733594  ]]"
"[[ 37.139343   -16.558443    16.005198   ... -14.329119   -16.913702
  -41.177505  ]
 [ 36.662495   -20.303318    18.362072   ...  -8.126342   -36.36581
  -22.081217  ]
 [ 36.59075    -22.388845    19.65876    ...  -4.2893763  -40.911827
  -15.992004  ]
 ...
 [ 34.867977   -22.92767     22.160904   ...   0.57976806 -40.008064
  -14.558761  ]
 [ 34.772743   -22.89253     22.06342    ...   0.5261003  -39.92032
  -14.38967   ]
 [ 37.071384   -23.809872    20.48871    ...  -2.928053   -38.971245
  -15.934833  ]]"
"[[ 37.139343   -16.558443    16.005198   ... -14.329119   -16.913702
  -41.177505  ]
 [ 36.662495   -20.303318    18.362072   ...  -8.126342   -36.36581
  -22.081217  ]
 [ 36.59075    -22.388845    19.65876    ...  -4.2893763  -40.911827
  -15.992004  ]
 ...
 [ 34.867977   -22.92767     22.160904   ...   0.57976806 -40.008064
  -14.558761  ]
 [ 34.772743   -22.89253     22.06342    ...   0.5261003  -39.92032
  -14.38967   ]
 [ 37.057255   -23.80875     20.514648   ...  -2.8752668  -39.008194
  -15.91372   ]]"
"[[ 37.139343   -16.558443    16.005198   ... -14.329119   -16.913702
  -41.177505  ]
 [ 36.662495   -20.303318    18.362072   ...  -8.126342   -36.36581
  -22.081217  ]
 [ 36.59075    -22.388845    19.65876    ...  -4.2893763  -40.911827
  -15.992004  ]
 ...
 [ 34.867977   -22.92767     22.160904   ...   0.57976806 -40.008064
  -14.558761  ]
 [ 34.772743   -22.89253     22.06342    ...   0.5261003  -39.92032
  -14.38967   ]
 [ 37.04836    -23.805737    20.522423   ...  -2.8510678  -39.02423
  -15.893088  ]]"
"[[ 37.139343   -16.558443    16.005198   ... -14.329119   -16.913702
  -41.177505  ]
 [ 36.662495   -20.303318    18.362072   ...  -8.126342   -36.36581
  -22.081217  ]
 [ 36.59075    -22.388845    19.65876    ...  -4.2893763  -40.911827
  -15.992004  ]
 ...
 [ 34.867977   -22.92767     22.160904   ...   0.57976806 -40.008064
  -14.558761  ]
 [ 34.772743   -22.89253     22.06342    ...   0.5261003  -39.92032
  -14.38967   ]
 [ 37.04777    -23.804707    20.521378   ...  -2.8534784  -39.022293
  -15.89276   ]]"
"[[ 37.139343   -16.558443    16.005198   ... -14.329119   -16.913702
  -41.177505  ]
 [ 36.662495   -20.303318    18.362072   ...  -8.126342   -36.36581
  -22.081217  ]
 [ 36.59075    -22.388845    19.65876    ...  -4.2893763  -40.911827
  -15.992004  ]
 ...
 [ 34.867977   -22.92767     22.160904   ...   0.57976806 -40.008064
  -14.558761  ]
 [ 34.772743   -22.89253     22.06342    ...   0.5261003  -39.92032
  -14.38967   ]
 [ 37.080296   -23.81781     20.518505   ...  -2.8873663  -39.000053
  -15.953473  ]]"
"[[ 37.139343   -16.558443    16.005198   ... -14.329119   -16.913702
  -41.177505  ]
 [ 36.662495   -20.303318    18.362072   ...  -8.126342   -36.36581
  -22.081217  ]
 [ 36.59075    -22.388845    19.65876    ...  -4.2893763  -40.911827
  -15.992004  ]
 ...
 [ 34.867977   -22.92767     22.160904   ...   0.57976806 -40.008064
  -14.558761  ]
 [ 34.772743   -22.89253     22.06342    ...   0.5261003  -39.92032
  -14.38967   ]
 [ 36.877213   -23.707287    20.559153   ...  -2.694147   -39.079453
  -15.677512  ]]"
"[[ 37.139343   -16.558443    16.005198   ... -14.329119   -16.913702
  -41.177505  ]
 [ 36.662495   -20.303318    18.362072   ...  -8.126342   -36.36581
  -22.081217  ]
 [ 36.59075    -22.388845    19.65876    ...  -4.2893763  -40.911827
  -15.992004  ]
 ...
 [ 34.867977   -22.92767     22.160904   ...   0.57976806 -40.008064
  -14.558761  ]
 [ 34.772743   -22.89253     22.06342    ...   0.5261003  -39.92032
  -14.38967   ]
 [ 36.84849    -23.69424     20.584192   ...  -2.6165352  -39.110962
  -15.623815  ]]"
"[[ 37.139343   -16.558443    16.005198   ... -14.329119   -16.913702
  -41.177505  ]
 [ 36.662495   -20.303318    18.362072   ...  -8.126342   -36.36581
  -22.081217  ]
 [ 36.59075    -22.388845    19.65876    ...  -4.2893763  -40.911827
  -15.992004  ]
 ...
 [ 34.867977   -22.92767     22.160904   ...   0.57976806 -40.008064
  -14.558761  ]
 [ 34.772743   -22.89253     22.06342    ...   0.5261003  -39.92032
  -14.38967   ]
 [ 36.975765   -23.750998    20.493769   ...  -2.8532758  -38.99604
  -15.794904  ]]"
"[[ 37.139343   -16.558443    16.005198   ... -14.329119   -16.913702
  -41.177505  ]
 [ 36.662495   -20.303318    18.362072   ...  -8.126342   -36.36581
  -22.081217  ]
 [ 36.59075    -22.388845    19.65876    ...  -4.2893763  -40.911827
  -15.992004  ]
 ...
 [ 34.867977   -22.92767     22.160904   ...   0.57976806 -40.008064
  -14.558761  ]
 [ 34.772743   -22.89253     22.06342    ...   0.5261003  -39.92032
  -14.38967   ]
 [ 36.994648   -23.757048    20.492039   ...  -2.874131   -38.98918
  -15.818877  ]]"
"[[ 37.139343   -16.558443    16.005198   ... -14.329119   -16.913702
  -41.177505  ]
 [ 36.662495   -20.303318    18.362072   ...  -8.126342   -36.36581
  -22.081217  ]
 [ 36.59075    -22.388845    19.65876    ...  -4.2893763  -40.911827
  -15.992004  ]
 ...
 [ 34.867977   -22.92767     22.160904   ...   0.57976806 -40.008064
  -14.558761  ]
 [ 34.772743   -22.89253     22.06342    ...   0.5261003  -39.92032
  -14.38967   ]
 [ 37.054493   -23.790844    20.473015   ...  -2.9488134  -38.93537
  -15.914096  ]]"
"[[ 37.139343   -16.558443    16.005198   ... -14.329119   -16.913702
  -41.177505  ]
 [ 36.662495   -20.303318    18.362072   ...  -8.126342   -36.36581
  -22.081217  ]
 [ 36.59075    -22.388845    19.65876    ...  -4.2893763  -40.911827
  -15.992004  ]
 ...
 [ 34.867977   -22.92767     22.160904   ...   0.57976806 -40.008064
  -14.558761  ]
 [ 34.772743   -22.89253     22.06342    ...   0.5261003  -39.92032
  -14.38967   ]
 [ 37.093906   -23.810694    20.461927   ...  -2.9979844  -38.89891
  -15.982638  ]]"
"[[ 37.139343   -16.558443    16.005198   ... -14.329119   -16.913702
  -41.177505  ]
 [ 36.662495   -20.303318    18.362072   ...  -8.126342   -36.36581
  -22.081217  ]
 [ 36.59075    -22.388845    19.65876    ...  -4.2893763  -40.911827
  -15.992004  ]
 ...
 [ 34.867977   -22.92767     22.160904   ...   0.57976806 -40.008064
  -14.558761  ]
 [ 34.772743   -22.89253     22.06342    ...   0.5261003  -39.92032
  -14.38967   ]
 [ 37.049877   -23.789268    20.492792   ...  -2.9018536  -38.97922
  -15.88177   ]]"
"[[ 37.139343   -16.558443    16.005198   ... -14.329119   -16.913702
  -41.177505  ]
 [ 36.662495   -20.303318    18.362072   ...  -8.126342   -36.36581
  -22.081217  ]
 [ 36.59075    -22.388845    19.65876    ...  -4.2893763  -40.911827
  -15.992004  ]
 ...
 [ 34.867977   -22.92767     22.160904   ...   0.57976806 -40.008064
  -14.558761  ]
 [ 34.772743   -22.89253     22.06342    ...   0.5261003  -39.92032
  -14.38967   ]
 [ 37.031414   -23.778078    20.493927   ...  -2.8710701  -39.007347
  -15.825526  ]]"
"[[ 37.139343   -16.558443    16.005198   ... -14.329119   -16.913702
  -41.177505  ]
 [ 36.662495   -20.303318    18.362072   ...  -8.126342   -36.36581
  -22.081217  ]
 [ 36.59075    -22.388845    19.65876    ...  -4.2893763  -40.911827
  -15.992004  ]
 ...
 [ 34.867977   -22.92767     22.160904   ...   0.57976806 -40.008064
  -14.558761  ]
 [ 34.772743   -22.89253     22.06342    ...   0.5261003  -39.92032
  -14.38967   ]
 [ 37.047478   -23.784725    20.473278   ...  -2.936052   -38.96502
  -15.881373  ]]"
"[[ 37.139343   -16.558443    16.005198   ... -14.329119   -16.913702
  -41.177505  ]
 [ 36.662495   -20.303318    18.362072   ...  -8.126342   -36.36581
  -22.081217  ]
 [ 36.59075    -22.388845    19.65876    ...  -4.2893763  -40.911827
  -15.992004  ]
 ...
 [ 34.867977   -22.92767     22.160904   ...   0.57976806 -40.008064
  -14.558761  ]
 [ 34.772743   -22.89253     22.06342    ...   0.5261003  -39.92032
  -14.38967   ]
 [ 36.995304   -23.755516    20.526499   ...  -2.776275   -39.033424
  -15.794841  ]]"
"[[ 37.139343   -16.558443    16.005198   ... -14.329119   -16.913702
  -41.177505  ]
 [ 36.662495   -20.303318    18.362072   ...  -8.126342   -36.36581
  -22.081217  ]
 [ 36.59075    -22.388845    19.65876    ...  -4.2893763  -40.911827
  -15.992004  ]
 ...
 [ 34.867977   -22.92767     22.160904   ...   0.57976806 -40.008064
  -14.558761  ]
 [ 34.772743   -22.89253     22.06342    ...   0.5261003  -39.92032
  -14.38967   ]
 [ 36.79048    -23.66056     20.63332    ...  -2.4423566  -39.167156
  -15.507203  ]]"
"[[ 37.139343   -16.558443    16.005198   ... -14.329119   -16.913702
  -41.177505  ]
 [ 36.662495   -20.303318    18.362072   ...  -8.126342   -36.36581
  -22.081217  ]
 [ 36.59075    -22.388845    19.65876    ...  -4.2893763  -40.911827
  -15.992004  ]
 ...
 [ 34.867977   -22.92767     22.160904   ...   0.57976806 -40.008064
  -14.558761  ]
 [ 34.772743   -22.89253     22.06342    ...   0.5261003  -39.92032
  -14.38967   ]
 [ 36.8251     -23.681767    20.611965   ...  -2.50713    -39.135017
  -15.56741   ]]"
"[[ 37.139343   -16.558443    16.005198   ... -14.329119   -16.913702
  -41.177505  ]
 [ 36.662495   -20.303318    18.362072   ...  -8.126342   -36.36581
  -22.081217  ]
 [ 36.59075    -22.388845    19.65876    ...  -4.2893763  -40.911827
  -15.992004  ]
 ...
 [ 34.867977   -22.92767     22.160904   ...   0.57976806 -40.008064
  -14.558761  ]
 [ 34.772743   -22.89253     22.06342    ...   0.5261003  -39.92032
  -14.38967   ]
 [ 36.993427   -23.75391     20.521225   ...  -2.7776484  -39.019638
  -15.798575  ]]"
"[[ 37.139343   -16.558443    16.005198   ... -14.329119   -16.913702
  -41.177505  ]
 [ 36.662495   -20.303318    18.362072   ...  -8.126342   -36.36581
  -22.081217  ]
 [ 36.59075    -22.388845    19.65876    ...  -4.2893763  -40.911827
  -15.992004  ]
 ...
 [ 34.867977   -22.92767     22.160904   ...   0.57976806 -40.008064
  -14.558761  ]
 [ 34.772743   -22.89253     22.06342    ...   0.5261003  -39.92032
  -14.38967   ]
 [ 37.001507   -23.757448    20.520775   ...  -2.7804928  -39.01806
  -15.804919  ]]"
"[[ 37.139343   -16.558443    16.005198   ... -14.329119   -16.913702
  -41.177505  ]
 [ 36.662495   -20.303318    18.362072   ...  -8.126342   -36.36581
  -22.081217  ]
 [ 36.59075    -22.388845    19.65876    ...  -4.2893763  -40.911827
  -15.992004  ]
 ...
 [ 34.867977   -22.92767     22.160904   ...   0.57976806 -40.008064
  -14.558761  ]
 [ 34.772743   -22.89253     22.06342    ...   0.5261003  -39.92032
  -14.38967   ]
 [ 37.047894   -23.781181    20.495338   ...  -2.8579473  -38.979694
  -15.870204  ]]"
"[[ 37.139343   -16.558443    16.005198   ... -14.329119   -16.913702
  -41.177505  ]
 [ 36.662495   -20.303318    18.362072   ...  -8.126342   -36.36581
  -22.081217  ]
 [ 36.59075    -22.388845    19.65876    ...  -4.2893763  -40.911827
  -15.992004  ]
 ...
 [ 34.867977   -22.92767     22.160904   ...   0.57976806 -40.008064
  -14.558761  ]
 [ 34.772743   -22.89253     22.06342    ...   0.5261003  -39.92032
  -14.38967   ]
 [ 37.07542    -23.794327    20.482769   ...  -2.8968318  -38.953995
  -15.906148  ]]"
"[[ 37.139343   -16.558443    16.005198   ... -14.329119   -16.913702
  -41.177505  ]
 [ 36.662495   -20.303318    18.362072   ...  -8.126342   -36.36581
  -22.081217  ]
 [ 36.59075    -22.388845    19.65876    ...  -4.2893763  -40.911827
  -15.992004  ]
 ...
 [ 34.867977   -22.92767     22.160904   ...   0.57976806 -40.008064
  -14.558761  ]
 [ 34.772743   -22.89253     22.06342    ...   0.5261003  -39.92032
  -14.38967   ]
 [ 36.967476   -23.738224    20.565296   ...  -2.6721997  -39.076473
  -15.731221  ]]"
"[[ 37.139343   -16.558443    16.005198   ... -14.329119   -16.913702
  -41.177505  ]
 [ 36.662495   -20.303318    18.362072   ...  -8.126342   -36.36581
  -22.081217  ]
 [ 36.59075    -22.388845    19.65876    ...  -4.2893763  -40.911827
  -15.992004  ]
 ...
 [ 34.867977   -22.92767     22.160904   ...   0.57976806 -40.008064
  -14.558761  ]
 [ 34.772743   -22.89253     22.06342    ...   0.5261003  -39.92032
  -14.38967   ]
 [ 36.643986   -23.59492     20.732182   ...  -2.1640246  -39.264046
  -15.330466  ]]"
"[[ 37.139343   -16.558443    16.005198   ... -14.329119   -16.913702
  -41.177505  ]
 [ 36.662495   -20.303318    18.362072   ...  -8.126342   -36.36581
  -22.081217  ]
 [ 36.59075    -22.388845    19.65876    ...  -4.2893763  -40.911827
  -15.992004  ]
 ...
 [ 34.867977   -22.92767     22.160904   ...   0.57976806 -40.008064
  -14.558761  ]
 [ 34.772743   -22.89253     22.06342    ...   0.5261003  -39.92032
  -14.38967   ]
 [ 36.454266   -23.51895     20.839165   ...  -1.8912503  -39.346237
  -15.168317  ]]"
"[[ 37.139343   -16.558443    16.005198   ... -14.329119   -16.913702
  -41.177505  ]
 [ 36.662495   -20.303318    18.362072   ...  -8.126342   -36.36581
  -22.081217  ]
 [ 36.59075    -22.388845    19.65876    ...  -4.2893763  -40.911827
  -15.992004  ]
 ...
 [ 34.867977   -22.92767     22.160904   ...   0.57976806 -40.008064
  -14.558761  ]
 [ 34.772743   -22.89253     22.06342    ...   0.5261003  -39.92032
  -14.38967   ]
 [ 36.525692   -23.560968    20.796013   ...  -2.0157824  -39.311058
  -15.235387  ]]"
"[[ 37.139343   -16.558443    16.005198   ... -14.329119   -16.913702
  -41.177505  ]
 [ 36.662495   -20.303318    18.362072   ...  -8.126342   -36.36581
  -22.081217  ]
 [ 36.59075    -22.388845    19.65876    ...  -4.2893763  -40.911827
  -15.992004  ]
 ...
 [ 34.867977   -22.92767     22.160904   ...   0.57976806 -40.008064
  -14.558761  ]
 [ 34.772743   -22.89253     22.06342    ...   0.5261003  -39.92032
  -14.38967   ]
 [ 36.290188   -23.45652     20.94557    ...  -1.651722   -39.434143
  -15.046994  ]]"
"[[ 37.139343   -16.558443    16.005198   ... -14.329119   -16.913702
  -41.177505  ]
 [ 36.662495   -20.303318    18.362072   ...  -8.126342   -36.36581
  -22.081217  ]
 [ 36.59075    -22.388845    19.65876    ...  -4.2893763  -40.911827
  -15.992004  ]
 ...
 [ 34.867977   -22.92767     22.160904   ...   0.57976806 -40.008064
  -14.558761  ]
 [ 34.772743   -22.89253     22.06342    ...   0.5261003  -39.92032
  -14.38967   ]
 [ 36.24509    -23.441198    20.963707   ...  -1.6084026  -39.45574
  -15.006881  ]]"
"[[ 37.139343   -16.558443    16.005198   ... -14.329119   -16.913702
  -41.177505  ]
 [ 36.662495   -20.303318    18.362072   ...  -8.126342   -36.36581
  -22.081217  ]
 [ 36.59075    -22.388845    19.65876    ...  -4.2893763  -40.911827
  -15.992004  ]
 ...
 [ 34.867977   -22.92767     22.160904   ...   0.57976806 -40.008064
  -14.558761  ]
 [ 34.772743   -22.89253     22.06342    ...   0.5261003  -39.92032
  -14.38967   ]
 [ 36.355854   -23.477955    20.899227   ...  -1.757501   -39.41004
  -15.089091  ]]"
"[[ 37.139343   -16.558443    16.005198   ... -14.329119   -16.913702
  -41.177505  ]
 [ 36.662495   -20.303318    18.362072   ...  -8.126342   -36.36581
  -22.081217  ]
 [ 36.59075    -22.388845    19.65876    ...  -4.2893763  -40.911827
  -15.992004  ]
 ...
 [ 34.867977   -22.92767     22.160904   ...   0.57976806 -40.008064
  -14.558761  ]
 [ 34.772743   -22.89253     22.06342    ...   0.5261003  -39.92032
  -14.38967   ]
 [ 36.57089    -23.561684    20.782593   ...  -2.0481484  -39.3321
  -15.261514  ]]"
"[[ 37.139343   -16.558443    16.005198   ... -14.329119   -16.913702
  -41.177505  ]
 [ 36.662495   -20.303318    18.362072   ...  -8.126342   -36.36581
  -22.081217  ]
 [ 36.59075    -22.388845    19.65876    ...  -4.2893763  -40.911827
  -15.992004  ]
 ...
 [ 34.867977   -22.92767     22.160904   ...   0.57976806 -40.008064
  -14.558761  ]
 [ 34.772743   -22.89253     22.06342    ...   0.5261003  -39.92032
  -14.38967   ]
 [ 36.940403   -23.730602    20.617243   ...  -2.5668454  -39.195934
  -15.726079  ]]"
"[[ 37.139343   -16.558443    16.005198   ... -14.329119   -16.913702
  -41.177505  ]
 [ 36.662495   -20.303318    18.362072   ...  -8.126342   -36.36581
  -22.081217  ]
 [ 36.59075    -22.388845    19.65876    ...  -4.2893763  -40.911827
  -15.992004  ]
 ...
 [ 34.867977   -22.92767     22.160904   ...   0.57976806 -40.008064
  -14.558761  ]
 [ 34.772743   -22.89253     22.06342    ...   0.5261003  -39.92032
  -14.38967   ]
 [ 36.681324   -23.597937    20.711945   ...  -2.255643   -39.258442
  -15.404622  ]]"
"[[ 37.139343   -16.558443    16.005198   ... -14.329119   -16.913702
  -41.177505  ]
 [ 36.662495   -20.303318    18.362072   ...  -8.126342   -36.36581
  -22.081217  ]
 [ 36.59075    -22.388845    19.65876    ...  -4.2893763  -40.911827
  -15.992004  ]
 ...
 [ 34.867977   -22.92767     22.160904   ...   0.57976806 -40.008064
  -14.558761  ]
 [ 34.772743   -22.89253     22.06342    ...   0.5261003  -39.92032
  -14.38967   ]
 [ 37.157986   -23.817604    20.427473   ...  -3.1584141  -38.784306
  -16.213255  ]]"
"[[ 37.139343   -16.558443    16.005198   ... -14.329119   -16.913702
  -41.177505  ]
 [ 36.662495   -20.303318    18.362072   ...  -8.126342   -36.36581
  -22.081217  ]
 [ 36.59075    -22.388845    19.65876    ...  -4.2893763  -40.911827
  -15.992004  ]
 ...
 [ 34.867977   -22.92767     22.160904   ...   0.57976806 -40.008064
  -14.558761  ]
 [ 34.772743   -22.89253     22.06342    ...   0.5261003  -39.92032
  -14.38967   ]
 [ 37.22292    -23.845901    20.39521    ...  -3.2934654  -38.693096
  -16.350168  ]]"
"[[ 37.139343   -16.558443    16.005198   ... -14.329119   -16.913702
  -41.177505  ]
 [ 36.662495   -20.303318    18.362072   ...  -8.126342   -36.36581
  -22.081217  ]
 [ 36.59075    -22.388845    19.65876    ...  -4.2893763  -40.911827
  -15.992004  ]
 ...
 [ 34.867977   -22.92767     22.160904   ...   0.57976806 -40.008064
  -14.558761  ]
 [ 34.772743   -22.89253     22.06342    ...   0.5261003  -39.92032
  -14.38967   ]
 [ 37.243843   -23.85414     20.393406   ...  -3.3226688  -38.675045
  -16.395508  ]]"
"[[ 37.139343   -16.558443    16.005198   ... -14.329119   -16.913702
  -41.177505  ]
 [ 36.662495   -20.303318    18.362072   ...  -8.126342   -36.36581
  -22.081217  ]
 [ 36.59075    -22.388845    19.65876    ...  -4.2893763  -40.911827
  -15.992004  ]
 ...
 [ 34.867977   -22.92767     22.160904   ...   0.57976806 -40.008064
  -14.558761  ]
 [ 34.772743   -22.89253     22.06342    ...   0.5261003  -39.92032
  -14.38967   ]
 [ 37.30264    -23.883581    20.397106   ...  -3.375959   -38.645546
  -16.494064  ]]"
"[[ 37.139343   -16.558443    16.005198   ... -14.329119   -16.913702
  -41.177505  ]
 [ 36.662495   -20.303318    18.362072   ...  -8.126342   -36.36581
  -22.081217  ]
 [ 36.59075    -22.388845    19.65876    ...  -4.2893763  -40.911827
  -15.992004  ]
 ...
 [ 34.867977   -22.92767     22.160904   ...   0.57976806 -40.008064
  -14.558761  ]
 [ 34.772743   -22.89253     22.06342    ...   0.5261003  -39.92032
  -14.38967   ]
 [ 37.408733   -23.908855    20.356482   ...  -3.5772479  -38.51459
  -16.764101  ]]"
"[[ 37.139343   -16.558443    16.005198   ... -14.329119   -16.913702
  -41.177505  ]
 [ 36.662495   -20.303318    18.362072   ...  -8.126342   -36.36581
  -22.081217  ]
 [ 36.59075    -22.388845    19.65876    ...  -4.2893763  -40.911827
  -15.992004  ]
 ...
 [ 34.867977   -22.92767     22.160904   ...   0.57976806 -40.008064
  -14.558761  ]
 [ 34.772743   -22.89253     22.06342    ...   0.5261003  -39.92032
  -14.38967   ]
 [ 37.12856    -23.803991    20.494072   ...  -3.0282683  -38.893074
  -16.173645  ]]"
"[[ 37.139343   -16.558443    16.005198   ... -14.329119   -16.913702
  -41.177505  ]
 [ 36.662495   -20.303318    18.362072   ...  -8.126342   -36.36581
  -22.081217  ]
 [ 36.59075    -22.388845    19.65876    ...  -4.2893763  -40.911827
  -15.992004  ]
 ...
 [ 34.867977   -22.92767     22.160904   ...   0.57976806 -40.008064
  -14.558761  ]
 [ 34.772743   -22.89253     22.06342    ...   0.5261003  -39.92032
  -14.38967   ]
 [ 37.141624   -23.807755    20.479706   ...  -3.0638452  -38.859795
  -16.202843  ]]"
"[[ 37.139343   -16.558443    16.005198   ... -14.329119   -16.913702
  -41.177505  ]
 [ 36.662495   -20.303318    18.362072   ...  -8.126342   -36.36581
  -22.081217  ]
 [ 36.59075    -22.388845    19.65876    ...  -4.2893763  -40.911827
  -15.992004  ]
 ...
 [ 34.867977   -22.92767     22.160904   ...   0.57976806 -40.008064
  -14.558761  ]
 [ 34.772743   -22.89253     22.06342    ...   0.5261003  -39.92032
  -14.38967   ]
 [ 37.160835   -23.814156    20.454521   ...  -3.1328619  -38.809734
  -16.251314  ]]"
"[[ 37.139343   -16.558443    16.005198   ... -14.329119   -16.913702
  -41.177505  ]
 [ 36.662495   -20.303318    18.362072   ...  -8.126342   -36.36581
  -22.081217  ]
 [ 36.59075    -22.388845    19.65876    ...  -4.2893763  -40.911827
  -15.992004  ]
 ...
 [ 34.867977   -22.92767     22.160904   ...   0.57976806 -40.008064
  -14.558761  ]
 [ 34.772743   -22.89253     22.06342    ...   0.5261003  -39.92032
  -14.38967   ]
 [ 37.273285   -23.872286    20.410908   ...  -3.3113394  -38.66151
  -16.476442  ]]"
"[[ 37.139343   -16.558443    16.005198   ... -14.329119   -16.913702
  -41.177505  ]
 [ 36.662495   -20.303318    18.362072   ...  -8.126342   -36.36581
  -22.081217  ]
 [ 36.59075    -22.388845    19.65876    ...  -4.2893763  -40.911827
  -15.992004  ]
 ...
 [ 34.867977   -22.92767     22.160904   ...   0.57976806 -40.008064
  -14.558761  ]
 [ 34.772743   -22.89253     22.06342    ...   0.5261003  -39.92032
  -14.38967   ]
 [ 37.22165    -23.852104    20.428951   ...  -3.2133932  -38.73548
  -16.344648  ]]"
"[[ 37.139343   -16.558443    16.005198   ... -14.329119   -16.913702
  -41.177505  ]
 [ 36.662495   -20.303318    18.362072   ...  -8.126342   -36.36581
  -22.081217  ]
 [ 36.59075    -22.388845    19.65876    ...  -4.2893763  -40.911827
  -15.992004  ]
 ...
 [ 34.867977   -22.92767     22.160904   ...   0.57976806 -40.008064
  -14.558761  ]
 [ 34.772743   -22.89253     22.06342    ...   0.5261003  -39.92032
  -14.38967   ]
 [ 36.984486   -23.746105    20.569393   ...  -2.6988978  -39.097794
  -15.795545  ]]"
"[[ 37.139343   -16.558443    16.005198   ... -14.329119   -16.913702
  -41.177505  ]
 [ 36.662495   -20.303318    18.362072   ...  -8.126342   -36.36581
  -22.081217  ]
 [ 36.59075    -22.388845    19.65876    ...  -4.2893763  -40.911827
  -15.992004  ]
 ...
 [ 34.867977   -22.92767     22.160904   ...   0.57976806 -40.008064
  -14.558761  ]
 [ 34.772743   -22.89253     22.06342    ...   0.5261003  -39.92032
  -14.38967   ]
 [ 36.891396   -23.701424    20.641497   ...  -2.501049   -39.200176
  -15.641068  ]]"
"[[ 37.139343   -16.558443    16.005198   ... -14.329119   -16.913702
  -41.177505  ]
 [ 36.662495   -20.303318    18.362072   ...  -8.126342   -36.36581
  -22.081217  ]
 [ 36.59075    -22.388845    19.65876    ...  -4.2893763  -40.911827
  -15.992004  ]
 ...
 [ 34.867977   -22.92767     22.160904   ...   0.57976806 -40.008064
  -14.558761  ]
 [ 34.772743   -22.89253     22.06342    ...   0.5261003  -39.92032
  -14.38967   ]
 [ 36.834553   -23.680038    20.690697   ...  -2.3674564  -39.277603
  -15.550662  ]]"
"[[ 37.139343   -16.558443    16.005198   ... -14.329119   -16.913702
  -41.177505  ]
 [ 36.662495   -20.303318    18.362072   ...  -8.126342   -36.36581
  -22.081217  ]
 [ 36.59075    -22.388845    19.65876    ...  -4.2893763  -40.911827
  -15.992004  ]
 ...
 [ 34.867977   -22.92767     22.160904   ...   0.57976806 -40.008064
  -14.558761  ]
 [ 34.772743   -22.89253     22.06342    ...   0.5261003  -39.92032
  -14.38967   ]
 [ 36.85177    -23.720179    20.69614    ...  -2.3891392  -39.24721
  -15.59875   ]]"
"[[ 37.139343   -16.558443    16.005198   ... -14.329119   -16.913702
  -41.177505  ]
 [ 36.662495   -20.303318    18.362072   ...  -8.126342   -36.36581
  -22.081217  ]
 [ 36.59075    -22.388845    19.65876    ...  -4.2893763  -40.911827
  -15.992004  ]
 ...
 [ 34.867977   -22.92767     22.160904   ...   0.57976806 -40.008064
  -14.558761  ]
 [ 34.772743   -22.89253     22.06342    ...   0.5261003  -39.92032
  -14.38967   ]
 [ 36.837593   -23.71786     20.70383    ...  -2.3697443  -39.256737
  -15.586646  ]]"
"[[ 37.139343   -16.558443    16.005198   ... -14.329119   -16.913702
  -41.177505  ]
 [ 36.662495   -20.303318    18.362072   ...  -8.126342   -36.36581
  -22.081217  ]
 [ 36.59075    -22.388845    19.65876    ...  -4.2893763  -40.911827
  -15.992004  ]
 ...
 [ 34.867977   -22.92767     22.160904   ...   0.57976806 -40.008064
  -14.558761  ]
 [ 34.772743   -22.89253     22.06342    ...   0.5261003  -39.92032
  -14.38967   ]
 [ 37.04546    -23.791067    20.503288   ...  -2.8764422  -39.005615
  -15.871316  ]]"
"[[ 37.139343   -16.558443    16.005198   ... -14.329119   -16.913702
  -41.177505  ]
 [ 36.662495   -20.303318    18.362072   ...  -8.126342   -36.36581
  -22.081217  ]
 [ 36.59075    -22.388845    19.65876    ...  -4.2893763  -40.911827
  -15.992004  ]
 ...
 [ 34.867977   -22.92767     22.160904   ...   0.57976806 -40.008064
  -14.558761  ]
 [ 34.772743   -22.89253     22.06342    ...   0.5261003  -39.92032
  -14.38967   ]
 [ 37.018444   -23.78612     20.532543   ...  -2.8045866  -39.042294
  -15.836522  ]]"
"[[ 37.139343   -16.558443    16.005198   ... -14.329119   -16.913702
  -41.177505  ]
 [ 36.662495   -20.303318    18.362072   ...  -8.126342   -36.36581
  -22.081217  ]
 [ 36.59075    -22.388845    19.65876    ...  -4.2893763  -40.911827
  -15.992004  ]
 ...
 [ 34.867977   -22.92767     22.160904   ...   0.57976806 -40.008064
  -14.558761  ]
 [ 34.772743   -22.89253     22.06342    ...   0.5261003  -39.92032
  -14.38967   ]
 [ 37.07565    -23.808819    20.492077   ...  -2.9244459  -38.977943
  -15.934573  ]]"
"[[ 37.139343   -16.558443    16.005198   ... -14.329119   -16.913702
  -41.177505  ]
 [ 36.662495   -20.303318    18.362072   ...  -8.126342   -36.36581
  -22.081217  ]
 [ 36.59075    -22.388845    19.65876    ...  -4.2893763  -40.911827
  -15.992004  ]
 ...
 [ 34.867977   -22.92767     22.160904   ...   0.57976806 -40.008064
  -14.558761  ]
 [ 34.772743   -22.89253     22.06342    ...   0.5261003  -39.92032
  -14.38967   ]
 [ 37.07011    -23.808619    20.50236    ...  -2.9145603  -38.988693
  -15.943511  ]]"
"[[ 37.139343   -16.558443    16.005198   ... -14.329119   -16.913702
  -41.177505  ]
 [ 36.662495   -20.303318    18.362072   ...  -8.126342   -36.36581
  -22.081217  ]
 [ 36.59075    -22.388845    19.65876    ...  -4.2893763  -40.911827
  -15.992004  ]
 ...
 [ 34.867977   -22.92767     22.160904   ...   0.57976806 -40.008064
  -14.558761  ]
 [ 34.772743   -22.89253     22.06342    ...   0.5261003  -39.92032
  -14.38967   ]
 [ 37.153263   -23.84275     20.461498   ...  -3.0487092  -38.877193
  -16.094616  ]]"
"[[ 37.139343   -16.558443    16.005198   ... -14.329119   -16.913702
  -41.177505  ]
 [ 36.662495   -20.303318    18.362072   ...  -8.126342   -36.36581
  -22.081217  ]
 [ 36.59075    -22.388845    19.65876    ...  -4.2893763  -40.911827
  -15.992004  ]
 ...
 [ 34.867977   -22.92767     22.160904   ...   0.57976806 -40.008064
  -14.558761  ]
 [ 34.772743   -22.89253     22.06342    ...   0.5261003  -39.92032
  -14.38967   ]
 [ 37.18624    -23.856876    20.432434   ...  -3.1212146  -38.830723
  -16.164774  ]]"
"[[ 37.139343   -16.558443    16.005198   ... -14.329119   -16.913702
  -41.177505  ]
 [ 36.662495   -20.303318    18.362072   ...  -8.126342   -36.36581
  -22.081217  ]
 [ 36.59075    -22.388845    19.65876    ...  -4.2893763  -40.911827
  -15.992004  ]
 ...
 [ 34.867977   -22.92767     22.160904   ...   0.57976806 -40.008064
  -14.558761  ]
 [ 34.772743   -22.89253     22.06342    ...   0.5261003  -39.92032
  -14.38967   ]
 [ 37.41637    -23.944622    20.426922   ...  -3.2827063  -38.702484
  -16.515099  ]]"
"[[ 37.139343   -16.558443    16.005198   ... -14.329119   -16.913702
  -41.177505  ]
 [ 36.662495   -20.303318    18.362072   ...  -8.126342   -36.36581
  -22.081217  ]
 [ 36.59075    -22.388845    19.65876    ...  -4.2893763  -40.911827
  -15.992004  ]
 ...
 [ 34.867977   -22.92767     22.160904   ...   0.57976806 -40.008064
  -14.558761  ]
 [ 34.772743   -22.89253     22.06342    ...   0.5261003  -39.92032
  -14.38967   ]
 [ 37.087673   -23.841969    20.705158   ...  -2.534929   -39.129837
  -16.014042  ]]"
"[[ 37.139343   -16.558443    16.005198   ... -14.329119   -16.913702
  -41.177505  ]
 [ 36.662495   -20.303318    18.362072   ...  -8.126342   -36.36581
  -22.081217  ]
 [ 36.59075    -22.388845    19.65876    ...  -4.2893763  -40.911827
  -15.992004  ]
 ...
 [ 34.867977   -22.92767     22.160904   ...   0.57976806 -40.008064
  -14.558761  ]
 [ 34.772743   -22.89253     22.06342    ...   0.5261003  -39.92032
  -14.38967   ]
 [ 37.072037   -23.821434    20.709698   ...  -2.5365007  -39.11276
  -16.03621   ]]"
"[[ 37.139343   -16.558443    16.005198   ... -14.329119   -16.913702
  -41.177505  ]
 [ 36.662495   -20.303318    18.362072   ...  -8.126342   -36.36581
  -22.081217  ]
 [ 36.59075    -22.388845    19.65876    ...  -4.2893763  -40.911827
  -15.992004  ]
 ...
 [ 34.867977   -22.92767     22.160904   ...   0.57976806 -40.008064
  -14.558761  ]
 [ 34.772743   -22.89253     22.06342    ...   0.5261003  -39.92032
  -14.38967   ]
 [ 37.06125    -23.821302    20.716473   ...  -2.5017123  -39.12778
  -16.015236  ]]"
"[[ 37.139343   -16.558443    16.005198   ... -14.329119   -16.913702
  -41.177505  ]
 [ 36.662495   -20.303318    18.362072   ...  -8.126342   -36.36581
  -22.081217  ]
 [ 36.59075    -22.388845    19.65876    ...  -4.2893763  -40.911827
  -15.992004  ]
 ...
 [ 34.867977   -22.92767     22.160904   ...   0.57976806 -40.008064
  -14.558761  ]
 [ 34.772743   -22.89253     22.06342    ...   0.5261003  -39.92032
  -14.38967   ]
 [ 37.31882    -23.927593    20.54778    ...  -2.979499   -38.87256
  -16.404943  ]]"
"[[ 37.139343   -16.558443    16.005198   ... -14.329119   -16.913702
  -41.177505  ]
 [ 36.662495   -20.303318    18.362072   ...  -8.126342   -36.36581
  -22.081217  ]
 [ 36.59075    -22.388845    19.65876    ...  -4.2893763  -40.911827
  -15.992004  ]
 ...
 [ 34.867977   -22.92767     22.160904   ...   0.57976806 -40.008064
  -14.558761  ]
 [ 34.772743   -22.89253     22.06342    ...   0.5261003  -39.92032
  -14.38967   ]
 [ 37.445004   -23.97659     20.539164   ...  -3.125461   -38.788
  -16.645056  ]]"
"[[ 37.139343   -16.558443    16.005198   ... -14.329119   -16.913702
  -41.177505  ]
 [ 36.662495   -20.303318    18.362072   ...  -8.126342   -36.36581
  -22.081217  ]
 [ 36.59075    -22.388845    19.65876    ...  -4.2893763  -40.911827
  -15.992004  ]
 ...
 [ 34.867977   -22.92767     22.160904   ...   0.57976806 -40.008064
  -14.558761  ]
 [ 34.772743   -22.89253     22.06342    ...   0.5261003  -39.92032
  -14.38967   ]
 [ 37.36362    -23.95266     20.60059    ...  -2.9476175  -38.888035
  -16.506227  ]]"
"[[ 37.139343   -16.558443    16.005198   ... -14.329119   -16.913702
  -41.177505  ]
 [ 36.662495   -20.303318    18.362072   ...  -8.126342   -36.36581
  -22.081217  ]
 [ 36.59075    -22.388845    19.65876    ...  -4.2893763  -40.911827
  -15.992004  ]
 ...
 [ 34.867977   -22.92767     22.160904   ...   0.57976806 -40.008064
  -14.558761  ]
 [ 34.772743   -22.89253     22.06342    ...   0.5261003  -39.92032
  -14.38967   ]
 [ 37.35187    -23.95034     20.626577   ...  -2.9162562  -38.894184
  -16.53491   ]]"
"[[ 37.139343   -16.558443    16.005198   ... -14.329119   -16.913702
  -41.177505  ]
 [ 36.662495   -20.303318    18.362072   ...  -8.126342   -36.36581
  -22.081217  ]
 [ 36.59075    -22.388845    19.65876    ...  -4.2893763  -40.911827
  -15.992004  ]
 ...
 [ 34.867977   -22.92767     22.160904   ...   0.57976806 -40.008064
  -14.558761  ]
 [ 34.772743   -22.89253     22.06342    ...   0.5261003  -39.92032
  -14.38967   ]
 [ 37.348904   -23.930145    20.6754     ...  -2.9220583  -38.867073
  -16.706083  ]]"
"[[ 37.139343   -16.558443    16.005198   ... -14.329119   -16.913702
  -41.177505  ]
 [ 36.662495   -20.303318    18.362072   ...  -8.126342   -36.36581
  -22.081217  ]
 [ 36.59075    -22.388845    19.65876    ...  -4.2893763  -40.911827
  -15.992004  ]
 ...
 [ 34.867977   -22.92767     22.160904   ...   0.57976806 -40.008064
  -14.558761  ]
 [ 34.772743   -22.89253     22.06342    ...   0.5261003  -39.92032
  -14.38967   ]
 [ 37.384144   -23.942083    20.68469    ...  -2.9662294  -38.83448
  -16.818613  ]]"
"[[ 37.139343   -16.558443    16.005198   ... -14.329119   -16.913702
  -41.177505  ]
 [ 36.662495   -20.303318    18.362072   ...  -8.126342   -36.36581
  -22.081217  ]
 [ 36.59075    -22.388845    19.65876    ...  -4.2893763  -40.911827
  -15.992004  ]
 ...
 [ 34.867977   -22.92767     22.160904   ...   0.57976806 -40.008064
  -14.558761  ]
 [ 34.772743   -22.89253     22.06342    ...   0.5261003  -39.92032
  -14.38967   ]
 [ 37.505173   -23.962948    20.649357   ...  -3.2271025  -38.635468
  -17.224302  ]]"
"[[ 37.139343   -16.558443    16.005198   ... -14.329119   -16.913702
  -41.177505  ]
 [ 36.662495   -20.303318    18.362072   ...  -8.126342   -36.36581
  -22.081217  ]
 [ 36.59075    -22.388845    19.65876    ...  -4.2893763  -40.911827
  -15.992004  ]
 ...
 [ 34.867977   -22.92767     22.160904   ...   0.57976806 -40.008064
  -14.558761  ]
 [ 34.772743   -22.89253     22.06342    ...   0.5261003  -39.92032
  -14.38967   ]
 [ 37.38625    -23.994017    20.588106   ...  -3.0953214  -38.699867
  -16.795664  ]]"
"[[ 37.139343   -16.558443    16.005198   ... -14.329119   -16.913702
  -41.177505  ]
 [ 36.662495   -20.303318    18.362072   ...  -8.126342   -36.36581
  -22.081217  ]
 [ 36.59075    -22.388845    19.65876    ...  -4.2893763  -40.911827
  -15.992004  ]
 ...
 [ 34.867977   -22.92767     22.160904   ...   0.57976806 -40.008064
  -14.558761  ]
 [ 34.772743   -22.89253     22.06342    ...   0.5261003  -39.92032
  -14.38967   ]
 [ 37.31843    -23.96657     20.569534   ...  -3.0184274  -38.75896
  -16.576553  ]]"
"[[ 37.139343   -16.558443    16.005198   ... -14.329119   -16.913702
  -41.177505  ]
 [ 36.662495   -20.303318    18.362072   ...  -8.126342   -36.36581
  -22.081217  ]
 [ 36.59075    -22.388845    19.65876    ...  -4.2893763  -40.911827
  -15.992004  ]
 ...
 [ 34.867977   -22.92767     22.160904   ...   0.57976806 -40.008064
  -14.558761  ]
 [ 34.772743   -22.89253     22.06342    ...   0.5261003  -39.92032
  -14.38967   ]
 [ 37.303738   -23.962353    20.564987   ...  -2.999148   -38.77194
  -16.54467   ]]"
"[[ 37.139343   -16.558443    16.005198   ... -14.329119   -16.913702
  -41.177505  ]
 [ 36.662495   -20.303318    18.362072   ...  -8.126342   -36.36581
  -22.081217  ]
 [ 36.59075    -22.388845    19.65876    ...  -4.2893763  -40.911827
  -15.992004  ]
 ...
 [ 34.867977   -22.92767     22.160904   ...   0.57976806 -40.008064
  -14.558761  ]
 [ 34.772743   -22.89253     22.06342    ...   0.5261003  -39.92032
  -14.38967   ]
 [ 37.352097   -23.978937    20.536137   ...  -3.0950463  -38.716225
  -16.6644    ]]"
"[[ 37.139343   -16.558443    16.005198   ... -14.329119   -16.913702
  -41.177505  ]
 [ 36.662495   -20.303318    18.362072   ...  -8.126342   -36.36581
  -22.081217  ]
 [ 36.59075    -22.388845    19.65876    ...  -4.2893763  -40.911827
  -15.992004  ]
 ...
 [ 34.867977   -22.92767     22.160904   ...   0.57976806 -40.008064
  -14.558761  ]
 [ 34.772743   -22.89253     22.06342    ...   0.5261003  -39.92032
  -14.38967   ]
 [ 37.334343   -23.97184     20.551691   ...  -3.0499375  -38.748856
  -16.620329  ]]"
"[[ 37.139343   -16.558443    16.005198   ... -14.329119   -16.913702
  -41.177505  ]
 [ 36.662495   -20.303318    18.362072   ...  -8.126342   -36.36581
  -22.081217  ]
 [ 36.59075    -22.388845    19.65876    ...  -4.2893763  -40.911827
  -15.992004  ]
 ...
 [ 34.867977   -22.92767     22.160904   ...   0.57976806 -40.008064
  -14.558761  ]
 [ 34.772743   -22.89253     22.06342    ...   0.5261003  -39.92032
  -14.38967   ]
 [ 37.572952   -24.023605    20.595596   ...  -3.2293088  -38.67917
  -17.096788  ]]"
"[[ 37.139343   -16.558443    16.005198   ... -14.329119   -16.913702
  -41.177505  ]
 [ 36.662495   -20.303318    18.362072   ...  -8.126342   -36.36581
  -22.081217  ]
 [ 36.59075    -22.388845    19.65876    ...  -4.2893763  -40.911827
  -15.992004  ]
 ...
 [ 34.867977   -22.92767     22.160904   ...   0.57976806 -40.008064
  -14.558761  ]
 [ 34.772743   -22.89253     22.06342    ...   0.5261003  -39.92032
  -14.38967   ]
 [ 37.317455   -23.964508    20.51299    ...  -3.0699782  -38.74191
  -16.551289  ]]"
"[[ 37.139343   -16.558443    16.005198   ... -14.329119   -16.913702
  -41.177505  ]
 [ 36.662495   -20.303318    18.362072   ...  -8.126342   -36.36581
  -22.081217  ]
 [ 36.59075    -22.388845    19.65876    ...  -4.2893763  -40.911827
  -15.992004  ]
 ...
 [ 34.867977   -22.92767     22.160904   ...   0.57976806 -40.008064
  -14.558761  ]
 [ 34.772743   -22.89253     22.06342    ...   0.5261003  -39.92032
  -14.38967   ]
 [ 37.280323   -23.948326    20.577087   ...  -2.9436414  -38.82942
  -16.484003  ]]"
"[[ 37.139343   -16.558443    16.005198   ... -14.329119   -16.913702
  -41.177505  ]
 [ 36.662495   -20.303318    18.362072   ...  -8.126342   -36.36581
  -22.081217  ]
 [ 36.59075    -22.388845    19.65876    ...  -4.2893763  -40.911827
  -15.992004  ]
 ...
 [ 34.867977   -22.92767     22.160904   ...   0.57976806 -40.008064
  -14.558761  ]
 [ 34.772743   -22.89253     22.06342    ...   0.5261003  -39.92032
  -14.38967   ]
 [ 37.27312    -23.947617    20.547197   ...  -2.9846232  -38.79666
  -16.475492  ]]"
"[[ 37.139343   -16.558443    16.005198   ... -14.329119   -16.913702
  -41.177505  ]
 [ 36.662495   -20.303318    18.362072   ...  -8.126342   -36.36581
  -22.081217  ]
 [ 36.59075    -22.388845    19.65876    ...  -4.2893763  -40.911827
  -15.992004  ]
 ...
 [ 34.867977   -22.92767     22.160904   ...   0.57976806 -40.008064
  -14.558761  ]
 [ 34.772743   -22.89253     22.06342    ...   0.5261003  -39.92032
  -14.38967   ]
 [ 37.161922   -23.89035     20.568386   ...  -2.8556435  -38.903374
  -16.253733  ]]"
"[[ 37.139343   -16.558443    16.005198   ... -14.329119   -16.913702
  -41.177505  ]
 [ 36.662495   -20.303318    18.362072   ...  -8.126342   -36.36581
  -22.081217  ]
 [ 36.59075    -22.388845    19.65876    ...  -4.2893763  -40.911827
  -15.992004  ]
 ...
 [ 34.867977   -22.92767     22.160904   ...   0.57976806 -40.008064
  -14.558761  ]
 [ 34.772743   -22.89253     22.06342    ...   0.5261003  -39.92032
  -14.38967   ]
 [ 37.18832    -23.883087    20.52106    ...  -2.9545197  -38.885994
  -16.24452   ]]"
"[[ 37.139343   -16.558443    16.005198   ... -14.329119   -16.913702
  -41.177505  ]
 [ 36.662495   -20.303318    18.362072   ...  -8.126342   -36.36581
  -22.081217  ]
 [ 36.59075    -22.388845    19.65876    ...  -4.2893763  -40.911827
  -15.992004  ]
 ...
 [ 34.867977   -22.92767     22.160904   ...   0.57976806 -40.008064
  -14.558761  ]
 [ 34.772743   -22.89253     22.06342    ...   0.5261003  -39.92032
  -14.38967   ]
 [ 36.91019    -23.736837    20.65398    ...  -2.5642855  -39.06627
  -15.825004  ]]"
"[[ 37.139343   -16.558443    16.005198   ... -14.329119   -16.913702
  -41.177505  ]
 [ 36.662495   -20.303318    18.362072   ...  -8.126342   -36.36581
  -22.081217  ]
 [ 36.59075    -22.388845    19.65876    ...  -4.2893763  -40.911827
  -15.992004  ]
 ...
 [ 34.867977   -22.92767     22.160904   ...   0.57976806 -40.008064
  -14.558761  ]
 [ 34.772743   -22.89253     22.06342    ...   0.5261003  -39.92032
  -14.38967   ]
 [ 36.837936   -23.701622    20.693024   ...  -2.4548068  -39.11702
  -15.734044  ]]"
"[[ 37.139343   -16.558443    16.005198   ... -14.329119   -16.913702
  -41.177505  ]
 [ 36.662495   -20.303318    18.362072   ...  -8.126342   -36.36581
  -22.081217  ]
 [ 36.59075    -22.388845    19.65876    ...  -4.2893763  -40.911827
  -15.992004  ]
 ...
 [ 34.867977   -22.92767     22.160904   ...   0.57976806 -40.008064
  -14.558761  ]
 [ 34.772743   -22.89253     22.06342    ...   0.5261003  -39.92032
  -14.38967   ]
 [ 36.56204    -23.585474    20.929043   ...  -1.9021739  -39.335674
  -15.462817  ]]"
"[[ 37.139343   -16.558443    16.005198   ... -14.329119   -16.913702
  -41.177505  ]
 [ 36.662495   -20.303318    18.362072   ...  -8.126342   -36.36581
  -22.081217  ]
 [ 36.59075    -22.388845    19.65876    ...  -4.2893763  -40.911827
  -15.992004  ]
 ...
 [ 34.867977   -22.92767     22.160904   ...   0.57976806 -40.008064
  -14.558761  ]
 [ 34.772743   -22.89253     22.06342    ...   0.5261003  -39.92032
  -14.38967   ]
 [ 36.194447   -23.432022    21.14555    ...  -1.4474319  -39.493996
  -15.193339  ]]"
"[[ 37.139343   -16.558443    16.005198   ... -14.329119   -16.913702
  -41.177505  ]
 [ 36.662495   -20.303318    18.362072   ...  -8.126342   -36.36581
  -22.081217  ]
 [ 36.59075    -22.388845    19.65876    ...  -4.2893763  -40.911827
  -15.992004  ]
 ...
 [ 34.867977   -22.92767     22.160904   ...   0.57976806 -40.008064
  -14.558761  ]
 [ 34.772743   -22.89253     22.06342    ...   0.5261003  -39.92032
  -14.38967   ]
 [ 36.106792   -23.408176    21.156115   ...  -1.3588183  -39.531166
  -15.079385  ]]"
"[[ 37.139343   -16.558443    16.005198   ... -14.329119   -16.913702
  -41.177505  ]
 [ 36.662495   -20.303318    18.362072   ...  -8.126342   -36.36581
  -22.081217  ]
 [ 36.59075    -22.388845    19.65876    ...  -4.2893763  -40.911827
  -15.992004  ]
 ...
 [ 34.867977   -22.92767     22.160904   ...   0.57976806 -40.008064
  -14.558761  ]
 [ 34.772743   -22.89253     22.06342    ...   0.5261003  -39.92032
  -14.38967   ]
 [ 36.041187   -23.392742    21.208214   ...  -1.2471299  -39.58515
  -15.024461  ]]"
"[[ 37.139343   -16.558443    16.005198   ... -14.329119   -16.913702
  -41.177505  ]
 [ 36.662495   -20.303318    18.362072   ...  -8.126342   -36.36581
  -22.081217  ]
 [ 36.59075    -22.388845    19.65876    ...  -4.2893763  -40.911827
  -15.992004  ]
 ...
 [ 34.867977   -22.92767     22.160904   ...   0.57976806 -40.008064
  -14.558761  ]
 [ 34.772743   -22.89253     22.06342    ...   0.5261003  -39.92032
  -14.38967   ]
 [ 36.070988   -23.410282    21.189386   ...  -1.2818632  -39.58673
  -15.0372305 ]]"
"[[ 37.139343   -16.558443    16.005198   ... -14.329119   -16.913702
  -41.177505  ]
 [ 36.662495   -20.303318    18.362072   ...  -8.126342   -36.36581
  -22.081217  ]
 [ 36.59075    -22.388845    19.65876    ...  -4.2893763  -40.911827
  -15.992004  ]
 ...
 [ 34.867977   -22.92767     22.160904   ...   0.57976806 -40.008064
  -14.558761  ]
 [ 34.772743   -22.89253     22.06342    ...   0.5261003  -39.92032
  -14.38967   ]
 [ 35.964878   -23.351452    21.201668   ...  -1.1991359  -39.599014
  -14.91587   ]]"
"[[ 37.139343   -16.558443    16.005198   ... -14.329119   -16.913702
  -41.177505  ]
 [ 36.662495   -20.303318    18.362072   ...  -8.126342   -36.36581
  -22.081217  ]
 [ 36.59075    -22.388845    19.65876    ...  -4.2893763  -40.911827
  -15.992004  ]
 ...
 [ 34.867977   -22.92767     22.160904   ...   0.57976806 -40.008064
  -14.558761  ]
 [ 34.772743   -22.89253     22.06342    ...   0.5261003  -39.92032
  -14.38967   ]
 [ 35.021156   -22.999496    21.79493    ...   0.08858059 -39.896225
  -14.3770685 ]]"
"[[ 37.139343   -16.558443    16.005198   ... -14.329119   -16.913702
  -41.177505  ]
 [ 36.662495   -20.303318    18.362072   ...  -8.126342   -36.36581
  -22.081217  ]
 [ 36.59075    -22.388845    19.65876    ...  -4.2893763  -40.911827
  -15.992004  ]
 ...
 [ 34.867977   -22.92767     22.160904   ...   0.57976806 -40.008064
  -14.558761  ]
 [ 34.772743   -22.89253     22.06342    ...   0.5261003  -39.92032
  -14.38967   ]
 [ 35.024704   -23.009335    21.824577   ...   0.10566638 -39.886017
  -14.425624  ]]"
"[[ 37.139343   -16.558443    16.005198   ... -14.329119   -16.913702
  -41.177505  ]
 [ 36.662495   -20.303318    18.362072   ...  -8.126342   -36.36581
  -22.081217  ]
 [ 36.59075    -22.388845    19.65876    ...  -4.2893763  -40.911827
  -15.992004  ]
 ...
 [ 34.867977   -22.92767     22.160904   ...   0.57976806 -40.008064
  -14.558761  ]
 [ 34.772743   -22.89253     22.06342    ...   0.5261003  -39.92032
  -14.38967   ]
 [ 34.802334   -22.910692    21.951244   ...   0.37841842 -39.90811
  -14.316569  ]]"
"[[ 37.139343   -16.558443    16.005198   ... -14.329119   -16.913702
  -41.177505  ]
 [ 36.662495   -20.303318    18.362072   ...  -8.126342   -36.36581
  -22.081217  ]
 [ 36.59075    -22.388845    19.65876    ...  -4.2893763  -40.911827
  -15.992004  ]
 ...
 [ 34.867977   -22.92767     22.160904   ...   0.57976806 -40.008064
  -14.558761  ]
 [ 34.772743   -22.89253     22.06342    ...   0.5261003  -39.92032
  -14.38967   ]
 [ 34.86227    -22.93334     21.936325   ...   0.32201    -39.894188
  -14.368001  ]]"
"[[ 37.139343   -16.558443    16.005198   ... -14.329119   -16.913702
  -41.177505  ]
 [ 36.662495   -20.303318    18.362072   ...  -8.126342   -36.36581
  -22.081217  ]
 [ 36.59075    -22.388845    19.65876    ...  -4.2893763  -40.911827
  -15.992004  ]
 ...
 [ 34.867977   -22.92767     22.160904   ...   0.57976806 -40.008064
  -14.558761  ]
 [ 34.772743   -22.89253     22.06342    ...   0.5261003  -39.92032
  -14.38967   ]
 [ 34.830685   -22.919117    21.952007   ...   0.35895678 -39.89898
  -14.34986   ]]"
"[[ 37.139343   -16.558443    16.005198   ... -14.329119   -16.913702
  -41.177505  ]
 [ 36.662495   -20.303318    18.362072   ...  -8.126342   -36.36581
  -22.081217  ]
 [ 36.59075    -22.388845    19.65876    ...  -4.2893763  -40.911827
  -15.992004  ]
 ...
 [ 34.867977   -22.92767     22.160904   ...   0.57976806 -40.008064
  -14.558761  ]
 [ 34.772743   -22.89253     22.06342    ...   0.5261003  -39.92032
  -14.38967   ]
 [ 34.711193   -22.863445    22.023222   ...   0.5052836  -39.923073
  -14.297721  ]]"
"[[ 37.139343   -16.558443    16.005198   ... -14.329119   -16.913702
  -41.177505  ]
 [ 36.662495   -20.303318    18.362072   ...  -8.126342   -36.36581
  -22.081217  ]
 [ 36.59075    -22.388845    19.65876    ...  -4.2893763  -40.911827
  -15.992004  ]
 ...
 [ 34.867977   -22.92767     22.160904   ...   0.57976806 -40.008064
  -14.558761  ]
 [ 34.772743   -22.89253     22.06342    ...   0.5261003  -39.92032
  -14.38967   ]
 [ 34.619793   -22.819565    22.068      ...   0.61814404 -39.965637
  -14.227794  ]]"
"[[ 37.139343   -16.558443    16.005198   ... -14.329119   -16.913702
  -41.177505  ]
 [ 36.662495   -20.303318    18.362072   ...  -8.126342   -36.36581
  -22.081217  ]
 [ 36.59075    -22.388845    19.65876    ...  -4.2893763  -40.911827
  -15.992004  ]
 ...
 [ 34.867977   -22.92767     22.160904   ...   0.57976806 -40.008064
  -14.558761  ]
 [ 34.772743   -22.89253     22.06342    ...   0.5261003  -39.92032
  -14.38967   ]
 [ 34.578705   -22.82859     22.128212   ...   0.7050499  -39.96705
  -14.244493  ]]"
"[[ 37.139343   -16.558443    16.005198   ... -14.329119   -16.913702
  -41.177505  ]
 [ 36.662495   -20.303318    18.362072   ...  -8.126342   -36.36581
  -22.081217  ]
 [ 36.59075    -22.388845    19.65876    ...  -4.2893763  -40.911827
  -15.992004  ]
 ...
 [ 34.867977   -22.92767     22.160904   ...   0.57976806 -40.008064
  -14.558761  ]
 [ 34.772743   -22.89253     22.06342    ...   0.5261003  -39.92032
  -14.38967   ]
 [ 35.003376   -22.992771    21.826748   ...   0.13618706 -39.885155
  -14.386516  ]]"
"[[ 37.139343   -16.558443    16.005198   ... -14.329119   -16.913702
  -41.177505  ]
 [ 36.662495   -20.303318    18.362072   ...  -8.126342   -36.36581
  -22.081217  ]
 [ 36.59075    -22.388845    19.65876    ...  -4.2893763  -40.911827
  -15.992004  ]
 ...
 [ 34.867977   -22.92767     22.160904   ...   0.57976806 -40.008064
  -14.558761  ]
 [ 34.772743   -22.89253     22.06342    ...   0.5261003  -39.92032
  -14.38967   ]
 [ 34.70797    -22.862       22.013622   ...   0.5102408  -39.96743
  -14.2512045 ]]"
"[[ 37.139343   -16.558443    16.005198   ... -14.329119   -16.913702
  -41.177505  ]
 [ 36.662495   -20.303318    18.362072   ...  -8.126342   -36.36581
  -22.081217  ]
 [ 36.59075    -22.388845    19.65876    ...  -4.2893763  -40.911827
  -15.992004  ]
 ...
 [ 34.867977   -22.92767     22.160904   ...   0.57976806 -40.008064
  -14.558761  ]
 [ 34.772743   -22.89253     22.06342    ...   0.5261003  -39.92032
  -14.38967   ]
 [ 34.752964   -22.879486    21.98045    ...   0.44660804 -39.95376
  -14.273095  ]]"
"[[ 37.139343   -16.558443    16.005198   ... -14.329119   -16.913702
  -41.177505  ]
 [ 36.662495   -20.303318    18.362072   ...  -8.126342   -36.36581
  -22.081217  ]
 [ 36.59075    -22.388845    19.65876    ...  -4.2893763  -40.911827
  -15.992004  ]
 ...
 [ 34.867977   -22.92767     22.160904   ...   0.57976806 -40.008064
  -14.558761  ]
 [ 34.772743   -22.89253     22.06342    ...   0.5261003  -39.92032
  -14.38967   ]
 [ 34.69168    -22.857529    22.048183   ...   0.5408013  -39.941788
  -14.295581  ]]"
"[[ 37.139343   -16.558443    16.005198   ... -14.329119   -16.913702
  -41.177505  ]
 [ 36.662495   -20.303318    18.362072   ...  -8.126342   -36.36581
  -22.081217  ]
 [ 36.59075    -22.388845    19.65876    ...  -4.2893763  -40.911827
  -15.992004  ]
 ...
 [ 34.867977   -22.92767     22.160904   ...   0.57976806 -40.008064
  -14.558761  ]
 [ 34.772743   -22.89253     22.06342    ...   0.5261003  -39.92032
  -14.38967   ]
 [ 34.842167   -22.918001    21.941195   ...   0.33414122 -39.947937
  -14.33776   ]]"
"[[ 37.139343   -16.558443    16.005198   ... -14.329119   -16.913702
  -41.177505  ]
 [ 36.662495   -20.303318    18.362072   ...  -8.126342   -36.36581
  -22.081217  ]
 [ 36.59075    -22.388845    19.65876    ...  -4.2893763  -40.911827
  -15.992004  ]
 ...
 [ 34.867977   -22.92767     22.160904   ...   0.57976806 -40.008064
  -14.558761  ]
 [ 34.772743   -22.89253     22.06342    ...   0.5261003  -39.92032
  -14.38967   ]
 [ 35.172146   -23.048513    21.753973   ...  -0.07621552 -39.872566
  -14.5128145 ]]"
"[[ 37.139343   -16.558443    16.005198   ... -14.329119   -16.913702
  -41.177505  ]
 [ 36.662495   -20.303318    18.362072   ...  -8.126342   -36.36581
  -22.081217  ]
 [ 36.59075    -22.388845    19.65876    ...  -4.2893763  -40.911827
  -15.992004  ]
 ...
 [ 34.867977   -22.92767     22.160904   ...   0.57976806 -40.008064
  -14.558761  ]
 [ 34.772743   -22.89253     22.06342    ...   0.5261003  -39.92032
  -14.38967   ]
 [ 34.98259    -22.976204    21.801514   ...   0.12886475 -39.88611
  -14.353234  ]]"
"[[ 37.139343   -16.558443    16.005198   ... -14.329119   -16.913702
  -41.177505  ]
 [ 36.662495   -20.303318    18.362072   ...  -8.126342   -36.36581
  -22.081217  ]
 [ 36.59075    -22.388845    19.65876    ...  -4.2893763  -40.911827
  -15.992004  ]
 ...
 [ 34.867977   -22.92767     22.160904   ...   0.57976806 -40.008064
  -14.558761  ]
 [ 34.772743   -22.89253     22.06342    ...   0.5261003  -39.92032
  -14.38967   ]
 [ 34.96188    -22.96745     21.796661   ...   0.1396973  -39.88597
  -14.328839  ]]"
"[[ 37.139343   -16.558443    16.005198   ... -14.329119   -16.913702
  -41.177505  ]
 [ 36.662495   -20.303318    18.362072   ...  -8.126342   -36.36581
  -22.081217  ]
 [ 36.59075    -22.388845    19.65876    ...  -4.2893763  -40.911827
  -15.992004  ]
 ...
 [ 34.867977   -22.92767     22.160904   ...   0.57976806 -40.008064
  -14.558761  ]
 [ 34.772743   -22.89253     22.06342    ...   0.5261003  -39.92032
  -14.38967   ]
 [ 35.112064   -23.025105    21.736685   ...  -0.04502608 -39.867565
  -14.438228  ]]"
"[[ 37.139343   -16.558443    16.005198   ... -14.329119   -16.913702
  -41.177505  ]
 [ 36.662495   -20.303318    18.362072   ...  -8.126342   -36.36581
  -22.081217  ]
 [ 36.59075    -22.388845    19.65876    ...  -4.2893763  -40.911827
  -15.992004  ]
 ...
 [ 34.867977   -22.92767     22.160904   ...   0.57976806 -40.008064
  -14.558761  ]
 [ 34.772743   -22.89253     22.06342    ...   0.5261003  -39.92032
  -14.38967   ]
 [ 35.311165   -23.10857     21.57564    ...  -0.32632878 -39.803974
  -14.4798975 ]]"
"[[ 37.139343   -16.558443    16.005198   ... -14.329119   -16.913702
  -41.177505  ]
 [ 36.662495   -20.303318    18.362072   ...  -8.126342   -36.36581
  -22.081217  ]
 [ 36.59075    -22.388845    19.65876    ...  -4.2893763  -40.911827
  -15.992004  ]
 ...
 [ 34.867977   -22.92767     22.160904   ...   0.57976806 -40.008064
  -14.558761  ]
 [ 34.772743   -22.89253     22.06342    ...   0.5261003  -39.92032
  -14.38967   ]
 [ 36.909405   -23.7292      20.587471   ...  -2.6124818  -39.15809
  -15.6457205 ]]"
"[[ 37.139343   -16.558443    16.005198   ... -14.329119   -16.913702
  -41.177505  ]
 [ 36.662495   -20.303318    18.362072   ...  -8.126342   -36.36581
  -22.081217  ]
 [ 36.59075    -22.388845    19.65876    ...  -4.2893763  -40.911827
  -15.992004  ]
 ...
 [ 34.867977   -22.92767     22.160904   ...   0.57976806 -40.008064
  -14.558761  ]
 [ 34.772743   -22.89253     22.06342    ...   0.5261003  -39.92032
  -14.38967   ]
 [ 36.997147   -23.775188    20.566242   ...  -2.7210438  -39.10133
  -15.779023  ]]"
"[[ 37.139343   -16.558443    16.005198   ... -14.329119   -16.913702
  -41.177505  ]
 [ 36.662495   -20.303318    18.362072   ...  -8.126342   -36.36581
  -22.081217  ]
 [ 36.59075    -22.388845    19.65876    ...  -4.2893763  -40.911827
  -15.992004  ]
 ...
 [ 34.867977   -22.92767     22.160904   ...   0.57976806 -40.008064
  -14.558761  ]
 [ 34.772743   -22.89253     22.06342    ...   0.5261003  -39.92032
  -14.38967   ]
 [ 37.030098   -23.789612    20.547092   ...  -2.7783458  -39.071957
  -15.832595  ]]"
"[[ 37.139343   -16.558443    16.005198   ... -14.329119   -16.913702
  -41.177505  ]
 [ 36.662495   -20.303318    18.362072   ...  -8.126342   -36.36581
  -22.081217  ]
 [ 36.59075    -22.388845    19.65876    ...  -4.2893763  -40.911827
  -15.992004  ]
 ...
 [ 34.867977   -22.92767     22.160904   ...   0.57976806 -40.008064
  -14.558761  ]
 [ 34.772743   -22.89253     22.06342    ...   0.5261003  -39.92032
  -14.38967   ]
 [ 36.962486   -23.76851     20.604858   ...  -2.6173363  -39.155937
  -15.726911  ]]"
"[[ 37.139343   -16.558443    16.005198   ... -14.329119   -16.913702
  -41.177505  ]
 [ 36.662495   -20.303318    18.362072   ...  -8.126342   -36.36581
  -22.081217  ]
 [ 36.59075    -22.388845    19.65876    ...  -4.2893763  -40.911827
  -15.992004  ]
 ...
 [ 34.867977   -22.92767     22.160904   ...   0.57976806 -40.008064
  -14.558761  ]
 [ 34.772743   -22.89253     22.06342    ...   0.5261003  -39.92032
  -14.38967   ]
 [ 37.068844   -23.813866    20.518822   ...  -2.87466    -39.009563
  -15.929833  ]]"
"[[ 37.139343   -16.558443    16.005198   ... -14.329119   -16.913702
  -41.177505  ]
 [ 36.662495   -20.303318    18.362072   ...  -8.126342   -36.36581
  -22.081217  ]
 [ 36.59075    -22.388845    19.65876    ...  -4.2893763  -40.911827
  -15.992004  ]
 ...
 [ 34.867977   -22.92767     22.160904   ...   0.57976806 -40.008064
  -14.558761  ]
 [ 34.772743   -22.89253     22.06342    ...   0.5261003  -39.92032
  -14.38967   ]
 [ 37.07735    -23.808113    20.496405   ...  -2.9139352  -38.967422
  -15.931666  ]]"
"[[ 37.139343   -16.558443    16.005198   ... -14.329119   -16.913702
  -41.177505  ]
 [ 36.662495   -20.303318    18.362072   ...  -8.126342   -36.36581
  -22.081217  ]
 [ 36.59075    -22.388845    19.65876    ...  -4.2893763  -40.911827
  -15.992004  ]
 ...
 [ 34.867977   -22.92767     22.160904   ...   0.57976806 -40.008064
  -14.558761  ]
 [ 34.772743   -22.89253     22.06342    ...   0.5261003  -39.92032
  -14.38967   ]
 [ 37.53149    -24.004871    20.401058   ...  -3.5334153  -38.47702
  -16.941298  ]]"
"[[ 37.139343   -16.558443    16.005198   ... -14.329119   -16.913702
  -41.177505  ]
 [ 36.662495   -20.303318    18.362072   ...  -8.126342   -36.36581
  -22.081217  ]
 [ 36.59075    -22.388845    19.65876    ...  -4.2893763  -40.911827
  -15.992004  ]
 ...
 [ 34.867977   -22.92767     22.160904   ...   0.57976806 -40.008064
  -14.558761  ]
 [ 34.772743   -22.89253     22.06342    ...   0.5261003  -39.92032
  -14.38967   ]
 [ 37.270084   -23.923721    20.508492   ...  -3.0409396  -38.825283
  -16.373829  ]]"
"[[ 37.139343   -16.558443    16.005198   ... -14.329119   -16.913702
  -41.177505  ]
 [ 36.662495   -20.303318    18.362072   ...  -8.126342   -36.36581
  -22.081217  ]
 [ 36.59075    -22.388845    19.65876    ...  -4.2893763  -40.911827
  -15.992004  ]
 ...
 [ 34.867977   -22.92767     22.160904   ...   0.57976806 -40.008064
  -14.558761  ]
 [ 34.772743   -22.89253     22.06342    ...   0.5261003  -39.92032
  -14.38967   ]
 [ 37.178204   -23.89792     20.66451    ...  -2.6926308  -39.014576
  -16.25961   ]]"
"[[ 37.139343   -16.558443    16.005198   ... -14.329119   -16.913702
  -41.177505  ]
 [ 36.662495   -20.303318    18.362072   ...  -8.126342   -36.36581
  -22.081217  ]
 [ 36.59075    -22.388845    19.65876    ...  -4.2893763  -40.911827
  -15.992004  ]
 ...
 [ 34.867977   -22.92767     22.160904   ...   0.57976806 -40.008064
  -14.558761  ]
 [ 34.772743   -22.89253     22.06342    ...   0.5261003  -39.92032
  -14.38967   ]
 [ 37.250317   -23.944254    20.622475   ...  -2.8391523  -38.91125
  -16.41498   ]]"
"[[ 37.139343   -16.558443    16.005198   ... -14.329119   -16.913702
  -41.177505  ]
 [ 36.662495   -20.303318    18.362072   ...  -8.126342   -36.36581
  -22.081217  ]
 [ 36.59075    -22.388845    19.65876    ...  -4.2893763  -40.911827
  -15.992004  ]
 ...
 [ 34.867977   -22.92767     22.160904   ...   0.57976806 -40.008064
  -14.558761  ]
 [ 34.772743   -22.89253     22.06342    ...   0.5261003  -39.92032
  -14.38967   ]
 [ 37.18095    -23.912386    20.660248   ...  -2.7072067  -39.03267
  -16.254835  ]]"
"[[ 37.139343   -16.558443    16.005198   ... -14.329119   -16.913702
  -41.177505  ]
 [ 36.662495   -20.303318    18.362072   ...  -8.126342   -36.36581
  -22.081217  ]
 [ 36.59075    -22.388845    19.65876    ...  -4.2893763  -40.911827
  -15.992004  ]
 ...
 [ 34.867977   -22.92767     22.160904   ...   0.57976806 -40.008064
  -14.558761  ]
 [ 34.772743   -22.89253     22.06342    ...   0.5261003  -39.92032
  -14.38967   ]
 [ 37.205868   -23.923643    20.6544     ...  -2.7437117  -39.004208
  -16.303719  ]]"
"[[ 37.139343   -16.558443    16.005198   ... -14.329119   -16.913702
  -41.177505  ]
 [ 36.662495   -20.303318    18.362072   ...  -8.126342   -36.36581
  -22.081217  ]
 [ 36.59075    -22.388845    19.65876    ...  -4.2893763  -40.911827
  -15.992004  ]
 ...
 [ 34.867977   -22.92767     22.160904   ...   0.57976806 -40.008064
  -14.558761  ]
 [ 34.772743   -22.89253     22.06342    ...   0.5261003  -39.92032
  -14.38967   ]
 [ 37.17596    -23.897577    20.763302   ...  -2.5367737  -39.116276
  -16.250387  ]]"
"[[ 37.139343   -16.558443    16.005198   ... -14.329119   -16.913702
  -41.177505  ]
 [ 36.662495   -20.303318    18.362072   ...  -8.126342   -36.36581
  -22.081217  ]
 [ 36.59075    -22.388845    19.65876    ...  -4.2893763  -40.911827
  -15.992004  ]
 ...
 [ 34.867977   -22.92767     22.160904   ...   0.57976806 -40.008064
  -14.558761  ]
 [ 34.772743   -22.89253     22.06342    ...   0.5261003  -39.92032
  -14.38967   ]
 [ 36.867367   -23.771027    20.753658   ...  -2.33801    -39.17801
  -15.827184  ]]"
"[[ 37.139343   -16.558443    16.005198   ... -14.329119   -16.913702
  -41.177505  ]
 [ 36.662495   -20.303318    18.362072   ...  -8.126342   -36.36581
  -22.081217  ]
 [ 36.59075    -22.388845    19.65876    ...  -4.2893763  -40.911827
  -15.992004  ]
 ...
 [ 34.867977   -22.92767     22.160904   ...   0.57976806 -40.008064
  -14.558761  ]
 [ 34.772743   -22.89253     22.06342    ...   0.5261003  -39.92032
  -14.38967   ]
 [ 37.106293   -23.85912     20.731705   ...  -2.531135   -39.099876
  -16.140587  ]]"
"[[ 37.139343   -16.558443    16.005198   ... -14.329119   -16.913702
  -41.177505  ]
 [ 36.662495   -20.303318    18.362072   ...  -8.126342   -36.36581
  -22.081217  ]
 [ 36.59075    -22.388845    19.65876    ...  -4.2893763  -40.911827
  -15.992004  ]
 ...
 [ 34.867977   -22.92767     22.160904   ...   0.57976806 -40.008064
  -14.558761  ]
 [ 34.772743   -22.89253     22.06342    ...   0.5261003  -39.92032
  -14.38967   ]
 [ 37.324257   -23.945099    20.623474   ...  -2.867188   -38.91887
  -16.448568  ]]"
"[[ 37.139343   -16.558443    16.005198   ... -14.329119   -16.913702
  -41.177505  ]
 [ 36.662495   -20.303318    18.362072   ...  -8.126342   -36.36581
  -22.081217  ]
 [ 36.59075    -22.388845    19.65876    ...  -4.2893763  -40.911827
  -15.992004  ]
 ...
 [ 34.867977   -22.92767     22.160904   ...   0.57976806 -40.008064
  -14.558761  ]
 [ 34.772743   -22.89253     22.06342    ...   0.5261003  -39.92032
  -14.38967   ]
 [ 37.217777   -23.897228    20.6375     ...  -2.744435   -38.977013
  -16.280378  ]]"
"[[ 37.139343   -16.558443    16.005198   ... -14.329119   -16.913702
  -41.177505  ]
 [ 36.662495   -20.303318    18.362072   ...  -8.126342   -36.36581
  -22.081217  ]
 [ 36.59075    -22.388845    19.65876    ...  -4.2893763  -40.911827
  -15.992004  ]
 ...
 [ 34.867977   -22.92767     22.160904   ...   0.57976806 -40.008064
  -14.558761  ]
 [ 34.772743   -22.89253     22.06342    ...   0.5261003  -39.92032
  -14.38967   ]
 [ 37.271267   -23.922459    20.614458   ...  -2.8257685  -38.941822
  -16.358     ]]"
"[[ 37.139343   -16.558443    16.005198   ... -14.329119   -16.913702
  -41.177505  ]
 [ 36.662495   -20.303318    18.362072   ...  -8.126342   -36.36581
  -22.081217  ]
 [ 36.59075    -22.388845    19.65876    ...  -4.2893763  -40.911827
  -15.992004  ]
 ...
 [ 34.867977   -22.92767     22.160904   ...   0.57976806 -40.008064
  -14.558761  ]
 [ 34.772743   -22.89253     22.06342    ...   0.5261003  -39.92032
  -14.38967   ]
 [ 37.296535   -23.931076    20.609417   ...  -2.8568501  -38.923756
  -16.398056  ]]"
"[[ 37.139343   -16.558443    16.005198   ... -14.329119   -16.913702
  -41.177505  ]
 [ 36.662495   -20.303318    18.362072   ...  -8.126342   -36.36581
  -22.081217  ]
 [ 36.59075    -22.388845    19.65876    ...  -4.2893763  -40.911827
  -15.992004  ]
 ...
 [ 34.867977   -22.92767     22.160904   ...   0.57976806 -40.008064
  -14.558761  ]
 [ 34.772743   -22.89253     22.06342    ...   0.5261003  -39.92032
  -14.38967   ]
 [ 37.216778   -23.888111    20.673296   ...  -2.7547224  -38.949333
  -16.389414  ]]"
"[[ 37.139343   -16.558443    16.005198   ... -14.329119   -16.913702
  -41.177505  ]
 [ 36.662495   -20.303318    18.362072   ...  -8.126342   -36.36581
  -22.081217  ]
 [ 36.59075    -22.388845    19.65876    ...  -4.2893763  -40.911827
  -15.992004  ]
 ...
 [ 34.867977   -22.92767     22.160904   ...   0.57976806 -40.008064
  -14.558761  ]
 [ 34.772743   -22.89253     22.06342    ...   0.5261003  -39.92032
  -14.38967   ]
 [ 37.13873    -23.859898    20.70131    ...  -2.6471734  -38.995754
  -16.26621   ]]"
"[[ 37.139343   -16.558443    16.005198   ... -14.329119   -16.913702
  -41.177505  ]
 [ 36.662495   -20.303318    18.362072   ...  -8.126342   -36.36581
  -22.081217  ]
 [ 36.59075    -22.388845    19.65876    ...  -4.2893763  -40.911827
  -15.992004  ]
 ...
 [ 34.867977   -22.92767     22.160904   ...   0.57976806 -40.008064
  -14.558761  ]
 [ 34.772743   -22.89253     22.06342    ...   0.5261003  -39.92032
  -14.38967   ]
 [ 37.262394   -23.90818     20.630867   ...  -2.8583713  -38.893578
  -16.466301  ]]"
"[[ 37.139343   -16.558443    16.005198   ... -14.329119   -16.913702
  -41.177505  ]
 [ 36.662495   -20.303318    18.362072   ...  -8.126342   -36.36581
  -22.081217  ]
 [ 36.59075    -22.388845    19.65876    ...  -4.2893763  -40.911827
  -15.992004  ]
 ...
 [ 34.867977   -22.92767     22.160904   ...   0.57976806 -40.008064
  -14.558761  ]
 [ 34.772743   -22.89253     22.06342    ...   0.5261003  -39.92032
  -14.38967   ]
 [ 37.03104    -23.804762    20.691244   ...  -2.539694   -39.05258
  -16.04505   ]]"
"[[ 37.139343   -16.558443    16.005198   ... -14.329119   -16.913702
  -41.177505  ]
 [ 36.662495   -20.303318    18.362072   ...  -8.126342   -36.36581
  -22.081217  ]
 [ 36.59075    -22.388845    19.65876    ...  -4.2893763  -40.911827
  -15.992004  ]
 ...
 [ 34.867977   -22.92767     22.160904   ...   0.57976806 -40.008064
  -14.558761  ]
 [ 34.772743   -22.89253     22.06342    ...   0.5261003  -39.92032
  -14.38967   ]
 [ 37.215378   -23.891304    20.557858   ...  -2.8771832  -38.895035
  -16.283255  ]]"
"[[ 37.139343   -16.558443    16.005198   ... -14.329119   -16.913702
  -41.177505  ]
 [ 36.662495   -20.303318    18.362072   ...  -8.126342   -36.36581
  -22.081217  ]
 [ 36.59075    -22.388845    19.65876    ...  -4.2893763  -40.911827
  -15.992004  ]
 ...
 [ 34.867977   -22.92767     22.160904   ...   0.57976806 -40.008064
  -14.558761  ]
 [ 34.772743   -22.89253     22.06342    ...   0.5261003  -39.92032
  -14.38967   ]
 [ 37.141834   -23.87726     20.579906   ...  -2.806911   -38.96472
  -16.16813   ]]"
"[[ 37.139343   -16.558443    16.005198   ... -14.329119   -16.913702
  -41.177505  ]
 [ 36.662495   -20.303318    18.362072   ...  -8.126342   -36.36581
  -22.081217  ]
 [ 36.59075    -22.388845    19.65876    ...  -4.2893763  -40.911827
  -15.992004  ]
 ...
 [ 34.867977   -22.92767     22.160904   ...   0.57976806 -40.008064
  -14.558761  ]
 [ 34.772743   -22.89253     22.06342    ...   0.5261003  -39.92032
  -14.38967   ]
 [ 37.230152   -23.921007    20.568787   ...  -2.9047089  -38.897892
  -16.334984  ]]"
"[[ 37.139343   -16.558443    16.005198   ... -14.329119   -16.913702
  -41.177505  ]
 [ 36.662495   -20.303318    18.362072   ...  -8.126342   -36.36581
  -22.081217  ]
 [ 36.59075    -22.388845    19.65876    ...  -4.2893763  -40.911827
  -15.992004  ]
 ...
 [ 34.867977   -22.92767     22.160904   ...   0.57976806 -40.008064
  -14.558761  ]
 [ 34.772743   -22.89253     22.06342    ...   0.5261003  -39.92032
  -14.38967   ]
 [ 37.365402   -23.96854     20.513765   ...  -3.1453905  -38.743584
  -16.58476   ]]"
"[[ 37.139343   -16.558443    16.005198   ... -14.329119   -16.913702
  -41.177505  ]
 [ 36.662495   -20.303318    18.362072   ...  -8.126342   -36.36581
  -22.081217  ]
 [ 36.59075    -22.388845    19.65876    ...  -4.2893763  -40.911827
  -15.992004  ]
 ...
 [ 34.867977   -22.92767     22.160904   ...   0.57976806 -40.008064
  -14.558761  ]
 [ 34.772743   -22.89253     22.06342    ...   0.5261003  -39.92032
  -14.38967   ]
 [ 37.33649    -23.956558    20.531147   ...  -3.0820658  -38.7845
  -16.517126  ]]"
"[[ 37.139343   -16.558443    16.005198   ... -14.329119   -16.913702
  -41.177505  ]
 [ 36.662495   -20.303318    18.362072   ...  -8.126342   -36.36581
  -22.081217  ]
 [ 36.59075    -22.388845    19.65876    ...  -4.2893763  -40.911827
  -15.992004  ]
 ...
 [ 34.867977   -22.92767     22.160904   ...   0.57976806 -40.008064
  -14.558761  ]
 [ 34.772743   -22.89253     22.06342    ...   0.5261003  -39.92032
  -14.38967   ]
 [ 36.896057   -23.734026    20.732592   ...  -2.4248586  -39.14508
  -15.796323  ]]"
"[[ 37.139343   -16.558443    16.005198   ... -14.329119   -16.913702
  -41.177505  ]
 [ 36.662495   -20.303318    18.362072   ...  -8.126342   -36.36581
  -22.081217  ]
 [ 36.59075    -22.388845    19.65876    ...  -4.2893763  -40.911827
  -15.992004  ]
 ...
 [ 34.867977   -22.92767     22.160904   ...   0.57976806 -40.008064
  -14.558761  ]
 [ 34.772743   -22.89253     22.06342    ...   0.5261003  -39.92032
  -14.38967   ]
 [ 35.98666    -23.346525    21.258606   ...  -1.1312621  -39.582058
  -14.993947  ]]"
"[[ 37.139343   -16.558443    16.005198   ... -14.329119   -16.913702
  -41.177505  ]
 [ 36.662495   -20.303318    18.362072   ...  -8.126342   -36.36581
  -22.081217  ]
 [ 36.59075    -22.388845    19.65876    ...  -4.2893763  -40.911827
  -15.992004  ]
 ...
 [ 34.867977   -22.92767     22.160904   ...   0.57976806 -40.008064
  -14.558761  ]
 [ 34.772743   -22.89253     22.06342    ...   0.5261003  -39.92032
  -14.38967   ]
 [ 35.45951    -23.149689    21.579567   ...  -0.43480375 -39.78457
  -14.666511  ]]"
"[[ 37.139343   -16.558443    16.005198   ... -14.329119   -16.913702
  -41.177505  ]
 [ 36.662495   -20.303318    18.362072   ...  -8.126342   -36.36581
  -22.081217  ]
 [ 36.59075    -22.388845    19.65876    ...  -4.2893763  -40.911827
  -15.992004  ]
 ...
 [ 34.867977   -22.92767     22.160904   ...   0.57976806 -40.008064
  -14.558761  ]
 [ 34.772743   -22.89253     22.06342    ...   0.5261003  -39.92032
  -14.38967   ]
 [ 34.70651    -22.858654    22.068108   ...   0.54737616 -39.9757
  -14.33381   ]]"
"[[ 37.139343   -16.558443    16.005198   ... -14.329119   -16.913702
  -41.177505  ]
 [ 36.662495   -20.303318    18.362072   ...  -8.126342   -36.36581
  -22.081217  ]
 [ 36.59075    -22.388845    19.65876    ...  -4.2893763  -40.911827
  -15.992004  ]
 ...
 [ 34.867977   -22.92767     22.160904   ...   0.57976806 -40.008064
  -14.558761  ]
 [ 34.772743   -22.89253     22.06342    ...   0.5261003  -39.92032
  -14.38967   ]
 [ 34.262608   -22.712841    22.344883   ...   1.1300952  -39.986908
  -14.18953   ]]"
"[[ 37.139343   -16.558443    16.005198   ... -14.329119   -16.913702
  -41.177505  ]
 [ 36.662495   -20.303318    18.362072   ...  -8.126342   -36.36581
  -22.081217  ]
 [ 36.59075    -22.388845    19.65876    ...  -4.2893763  -40.911827
  -15.992004  ]
 ...
 [ 34.867977   -22.92767     22.160904   ...   0.57976806 -40.008064
  -14.558761  ]
 [ 34.772743   -22.89253     22.06342    ...   0.5261003  -39.92032
  -14.38967   ]
 [ 34.786213   -22.921555    22.025415   ...   0.47417757 -39.954903
  -14.362964  ]]"
"[[ 37.139343   -16.558443    16.005198   ... -14.329119   -16.913702
  -41.177505  ]
 [ 36.662495   -20.303318    18.362072   ...  -8.126342   -36.36581
  -22.081217  ]
 [ 36.59075    -22.388845    19.65876    ...  -4.2893763  -40.911827
  -15.992004  ]
 ...
 [ 34.867977   -22.92767     22.160904   ...   0.57976806 -40.008064
  -14.558761  ]
 [ 34.772743   -22.89253     22.06342    ...   0.5261003  -39.92032
  -14.38967   ]
 [ 34.76712    -22.905964    22.020844   ...   0.4757366  -39.95616
  -14.3465395 ]]"
"[[ 37.139343   -16.558443    16.005198   ... -14.329119   -16.913702
  -41.177505  ]
 [ 36.662495   -20.303318    18.362072   ...  -8.126342   -36.36581
  -22.081217  ]
 [ 36.59075    -22.388845    19.65876    ...  -4.2893763  -40.911827
  -15.992004  ]
 ...
 [ 34.867977   -22.92767     22.160904   ...   0.57976806 -40.008064
  -14.558761  ]
 [ 34.772743   -22.89253     22.06342    ...   0.5261003  -39.92032
  -14.38967   ]
 [ 34.761295   -22.903847    22.021904   ...   0.4804189  -39.95724
  -14.341262  ]]"
"[[ 37.139343   -16.558443    16.005198   ... -14.329119   -16.913702
  -41.177505  ]
 [ 36.662495   -20.303318    18.362072   ...  -8.126342   -36.36581
  -22.081217  ]
 [ 36.59075    -22.388845    19.65876    ...  -4.2893763  -40.911827
  -15.992004  ]
 ...
 [ 34.867977   -22.92767     22.160904   ...   0.57976806 -40.008064
  -14.558761  ]
 [ 34.772743   -22.89253     22.06342    ...   0.5261003  -39.92032
  -14.38967   ]
 [ 34.85391    -22.939487    21.92844    ...   0.31444117 -39.933743
  -14.345782  ]]"
"[[ 37.139343   -16.558443    16.005198   ... -14.329119   -16.913702
  -41.177505  ]
 [ 36.662495   -20.303318    18.362072   ...  -8.126342   -36.36581
  -22.081217  ]
 [ 36.59075    -22.388845    19.65876    ...  -4.2893763  -40.911827
  -15.992004  ]
 ...
 [ 34.867977   -22.92767     22.160904   ...   0.57976806 -40.008064
  -14.558761  ]
 [ 34.772743   -22.89253     22.06342    ...   0.5261003  -39.92032
  -14.38967   ]
 [ 34.786877   -22.906311    21.963196   ...   0.39573738 -39.939953
  -14.313081  ]]"
"[[ 37.139343   -16.558443    16.005198   ... -14.329119   -16.913702
  -41.177505  ]
 [ 36.662495   -20.303318    18.362072   ...  -8.126342   -36.36581
  -22.081217  ]
 [ 36.59075    -22.388845    19.65876    ...  -4.2893763  -40.911827
  -15.992004  ]
 ...
 [ 34.867977   -22.92767     22.160904   ...   0.57976806 -40.008064
  -14.558761  ]
 [ 34.772743   -22.89253     22.06342    ...   0.5261003  -39.92032
  -14.38967   ]
 [ 34.82295    -22.918282    21.977474   ...   0.378453   -39.920967
  -14.373591  ]]"
"[[ 37.139343   -16.558443    16.005198   ... -14.329119   -16.913702
  -41.177505  ]
 [ 36.662495   -20.303318    18.362072   ...  -8.126342   -36.36581
  -22.081217  ]
 [ 36.59075    -22.388845    19.65876    ...  -4.2893763  -40.911827
  -15.992004  ]
 ...
 [ 34.867977   -22.92767     22.160904   ...   0.57976806 -40.008064
  -14.558761  ]
 [ 34.772743   -22.89253     22.06342    ...   0.5261003  -39.92032
  -14.38967   ]
 [ 34.81625    -22.912912    22.007633   ...   0.3976409  -39.926903
  -14.410125  ]]"
"[[ 37.139343   -16.558443    16.005198   ... -14.329119   -16.913702
  -41.177505  ]
 [ 36.662495   -20.303318    18.362072   ...  -8.126342   -36.36581
  -22.081217  ]
 [ 36.59075    -22.388845    19.65876    ...  -4.2893763  -40.911827
  -15.992004  ]
 ...
 [ 34.867977   -22.92767     22.160904   ...   0.57976806 -40.008064
  -14.558761  ]
 [ 34.772743   -22.89253     22.06342    ...   0.5261003  -39.92032
  -14.38967   ]
 [ 34.7814     -22.902708    22.035091   ...   0.44321248 -39.931866
  -14.399829  ]]"
"[[ 37.139343   -16.558443    16.005198   ... -14.329119   -16.913702
  -41.177505  ]
 [ 36.662495   -20.303318    18.362072   ...  -8.126342   -36.36581
  -22.081217  ]
 [ 36.59075    -22.388845    19.65876    ...  -4.2893763  -40.911827
  -15.992004  ]
 ...
 [ 34.867977   -22.92767     22.160904   ...   0.57976806 -40.008064
  -14.558761  ]
 [ 34.772743   -22.89253     22.06342    ...   0.5261003  -39.92032
  -14.38967   ]
 [ 34.47741    -22.767918    22.154387   ...   0.79600453 -39.944496
  -14.192582  ]]"
"[[ 37.139343   -16.558443    16.005198   ... -14.329119   -16.913702
  -41.177505  ]
 [ 36.662495   -20.303318    18.362072   ...  -8.126342   -36.36581
  -22.081217  ]
 [ 36.59075    -22.388845    19.65876    ...  -4.2893763  -40.911827
  -15.992004  ]
 ...
 [ 34.867977   -22.92767     22.160904   ...   0.57976806 -40.008064
  -14.558761  ]
 [ 34.772743   -22.89253     22.06342    ...   0.5261003  -39.92032
  -14.38967   ]
 [ 34.33758    -22.726463    22.262413   ...   1.0034978  -39.96759
  -14.154021  ]]"
"[[ 37.139343   -16.558443    16.005198   ... -14.329119   -16.913702
  -41.177505  ]
 [ 36.662495   -20.303318    18.362072   ...  -8.126342   -36.36581
  -22.081217  ]
 [ 36.59075    -22.388845    19.65876    ...  -4.2893763  -40.911827
  -15.992004  ]
 ...
 [ 34.867977   -22.92767     22.160904   ...   0.57976806 -40.008064
  -14.558761  ]
 [ 34.772743   -22.89253     22.06342    ...   0.5261003  -39.92032
  -14.38967   ]
 [ 34.209522   -22.684792    22.362152   ...   1.192976   -39.99417
  -14.1216    ]]"
"[[ 37.139343   -16.558443    16.005198   ... -14.329119   -16.913702
  -41.177505  ]
 [ 36.662495   -20.303318    18.362072   ...  -8.126342   -36.36581
  -22.081217  ]
 [ 36.59075    -22.388845    19.65876    ...  -4.2893763  -40.911827
  -15.992004  ]
 ...
 [ 34.867977   -22.92767     22.160904   ...   0.57976806 -40.008064
  -14.558761  ]
 [ 34.772743   -22.89253     22.06342    ...   0.5261003  -39.92032
  -14.38967   ]
 [ 34.403538   -22.748686    22.225756   ...   0.9230089  -39.960293
  -14.182883  ]]"
"[[ 37.139343   -16.558443    16.005198   ... -14.329119   -16.913702
  -41.177505  ]
 [ 36.662495   -20.303318    18.362072   ...  -8.126342   -36.36581
  -22.081217  ]
 [ 36.59075    -22.388845    19.65876    ...  -4.2893763  -40.911827
  -15.992004  ]
 ...
 [ 34.867977   -22.92767     22.160904   ...   0.57976806 -40.008064
  -14.558761  ]
 [ 34.772743   -22.89253     22.06342    ...   0.5261003  -39.92032
  -14.38967   ]
 [ 34.424427   -22.757027    22.212496   ...   0.89403343 -39.962357
  -14.185212  ]]"
"[[ 37.139343   -16.558443    16.005198   ... -14.329119   -16.913702
  -41.177505  ]
 [ 36.662495   -20.303318    18.362072   ...  -8.126342   -36.36581
  -22.081217  ]
 [ 36.59075    -22.388845    19.65876    ...  -4.2893763  -40.911827
  -15.992004  ]
 ...
 [ 34.867977   -22.92767     22.160904   ...   0.57976806 -40.008064
  -14.558761  ]
 [ 34.772743   -22.89253     22.06342    ...   0.5261003  -39.92032
  -14.38967   ]
 [ 34.22098    -22.68593     22.34899    ...   1.1762917  -39.993282
  -14.114074  ]]"
"[[ 37.139343   -16.558443    16.005198   ... -14.329119   -16.913702
  -41.177505  ]
 [ 36.662495   -20.303318    18.362072   ...  -8.126342   -36.36581
  -22.081217  ]
 [ 36.59075    -22.388845    19.65876    ...  -4.2893763  -40.911827
  -15.992004  ]
 ...
 [ 34.867977   -22.92767     22.160904   ...   0.57976806 -40.008064
  -14.558761  ]
 [ 34.772743   -22.89253     22.06342    ...   0.5261003  -39.92032
  -14.38967   ]
 [ 34.449024   -22.794537    22.36951    ...   1.0891917  -39.99157
  -14.373134  ]]"
"[[ 37.139343   -16.558443    16.005198   ... -14.329119   -16.913702
  -41.177505  ]
 [ 36.662495   -20.303318    18.362072   ...  -8.126342   -36.36581
  -22.081217  ]
 [ 36.59075    -22.388845    19.65876    ...  -4.2893763  -40.911827
  -15.992004  ]
 ...
 [ 34.867977   -22.92767     22.160904   ...   0.57976806 -40.008064
  -14.558761  ]
 [ 34.772743   -22.89253     22.06342    ...   0.5261003  -39.92032
  -14.38967   ]
 [ 34.527084   -22.821074    22.24846    ...   0.9140427  -39.94897
  -14.334695  ]]"
"[[ 37.139343   -16.558443    16.005198   ... -14.329119   -16.913702
  -41.177505  ]
 [ 36.662495   -20.303318    18.362072   ...  -8.126342   -36.36581
  -22.081217  ]
 [ 36.59075    -22.388845    19.65876    ...  -4.2893763  -40.911827
  -15.992004  ]
 ...
 [ 34.867977   -22.92767     22.160904   ...   0.57976806 -40.008064
  -14.558761  ]
 [ 34.772743   -22.89253     22.06342    ...   0.5261003  -39.92032
  -14.38967   ]
 [ 34.300877   -22.724825    22.45303    ...   1.2725983  -40.021614
  -14.30145   ]]"
"[[ 37.139343   -16.558443    16.005198   ... -14.329119   -16.913702
  -41.177505  ]
 [ 36.662495   -20.303318    18.362072   ...  -8.126342   -36.36581
  -22.081217  ]
 [ 36.59075    -22.388845    19.65876    ...  -4.2893763  -40.911827
  -15.992004  ]
 ...
 [ 34.867977   -22.92767     22.160904   ...   0.57976806 -40.008064
  -14.558761  ]
 [ 34.772743   -22.89253     22.06342    ...   0.5261003  -39.92032
  -14.38967   ]
 [ 34.17187    -22.657417    22.399536   ...   1.262577   -40.015053
  -14.114501  ]]"
"[[ 37.139343   -16.558443    16.005198   ... -14.329119   -16.913702
  -41.177505  ]
 [ 36.662495   -20.303318    18.362072   ...  -8.126342   -36.36581
  -22.081217  ]
 [ 36.59075    -22.388845    19.65876    ...  -4.2893763  -40.911827
  -15.992004  ]
 ...
 [ 34.867977   -22.92767     22.160904   ...   0.57976806 -40.008064
  -14.558761  ]
 [ 34.772743   -22.89253     22.06342    ...   0.5261003  -39.92032
  -14.38967   ]
 [ 34.405014   -22.729061    22.292606   ...   0.95990705 -40.06425
  -14.2082815 ]]"
"[[ 37.139343   -16.558443    16.005198   ... -14.329119   -16.913702
  -41.177505  ]
 [ 36.662495   -20.303318    18.362072   ...  -8.126342   -36.36581
  -22.081217  ]
 [ 36.59075    -22.388845    19.65876    ...  -4.2893763  -40.911827
  -15.992004  ]
 ...
 [ 34.867977   -22.92767     22.160904   ...   0.57976806 -40.008064
  -14.558761  ]
 [ 34.772743   -22.89253     22.06342    ...   0.5261003  -39.92032
  -14.38967   ]
 [ 34.193615   -22.671944    22.377449   ...   1.2269986  -40.000748
  -14.116927  ]]"
"[[ 37.139343   -16.558443    16.005198   ... -14.329119   -16.913702
  -41.177505  ]
 [ 36.662495   -20.303318    18.362072   ...  -8.126342   -36.36581
  -22.081217  ]
 [ 36.59075    -22.388845    19.65876    ...  -4.2893763  -40.911827
  -15.992004  ]
 ...
 [ 34.867977   -22.92767     22.160904   ...   0.57976806 -40.008064
  -14.558761  ]
 [ 34.772743   -22.89253     22.06342    ...   0.5261003  -39.92032
  -14.38967   ]
 [ 34.506714   -22.820652    22.32388    ...   1.0145416  -39.969845
  -14.385983  ]]"
"[[ 37.139343   -16.558443    16.005198   ... -14.329119   -16.913702
  -41.177505  ]
 [ 36.662495   -20.303318    18.362072   ...  -8.126342   -36.36581
  -22.081217  ]
 [ 36.59075    -22.388845    19.65876    ...  -4.2893763  -40.911827
  -15.992004  ]
 ...
 [ 34.867977   -22.92767     22.160904   ...   0.57976806 -40.008064
  -14.558761  ]
 [ 34.772743   -22.89253     22.06342    ...   0.5261003  -39.92032
  -14.38967   ]
 [ 34.354057   -22.750507    22.414625   ...   1.1977715  -40.008827
  -14.316752  ]]"
"[[ 37.139343   -16.558443    16.005198   ... -14.329119   -16.913702
  -41.177505  ]
 [ 36.662495   -20.303318    18.362072   ...  -8.126342   -36.36581
  -22.081217  ]
 [ 36.59075    -22.388845    19.65876    ...  -4.2893763  -40.911827
  -15.992004  ]
 ...
 [ 34.867977   -22.92767     22.160904   ...   0.57976806 -40.008064
  -14.558761  ]
 [ 34.772743   -22.89253     22.06342    ...   0.5261003  -39.92032
  -14.38967   ]
 [ 34.60588    -22.864445    22.308838   ...   0.92706513 -39.9732
  -14.472732  ]]"
"[[ 37.139343   -16.558443    16.005198   ... -14.329119   -16.913702
  -41.177505  ]
 [ 36.662495   -20.303318    18.362072   ...  -8.126342   -36.36581
  -22.081217  ]
 [ 36.59075    -22.388845    19.65876    ...  -4.2893763  -40.911827
  -15.992004  ]
 ...
 [ 34.867977   -22.92767     22.160904   ...   0.57976806 -40.008064
  -14.558761  ]
 [ 34.772743   -22.89253     22.06342    ...   0.5261003  -39.92032
  -14.38967   ]
 [ 34.81037    -22.970522    22.199518   ...   0.73397315 -39.962795
  -14.533887  ]]"
"[[ 37.139343   -16.558443    16.005198   ... -14.329119   -16.913702
  -41.177505  ]
 [ 36.662495   -20.303318    18.362072   ...  -8.126342   -36.36581
  -22.081217  ]
 [ 36.59075    -22.388845    19.65876    ...  -4.2893763  -40.911827
  -15.992004  ]
 ...
 [ 34.867977   -22.92767     22.160904   ...   0.57976806 -40.008064
  -14.558761  ]
 [ 34.772743   -22.89253     22.06342    ...   0.5261003  -39.92032
  -14.38967   ]
 [ 35.115818   -23.074593    22.038157   ...   0.3432531  -39.924805
  -14.706782  ]]"
"[[ 37.139343   -16.558443    16.005198   ... -14.329119   -16.913702
  -41.177505  ]
 [ 36.662495   -20.303318    18.362072   ...  -8.126342   -36.36581
  -22.081217  ]
 [ 36.59075    -22.388845    19.65876    ...  -4.2893763  -40.911827
  -15.992004  ]
 ...
 [ 34.867977   -22.92767     22.160904   ...   0.57976806 -40.008064
  -14.558761  ]
 [ 34.772743   -22.89253     22.06342    ...   0.5261003  -39.92032
  -14.38967   ]
 [ 34.989773   -23.03841     22.120136   ...   0.52241397 -39.960777
  -14.646249  ]]"
"[[ 37.139343   -16.558443    16.005198   ... -14.329119   -16.913702
  -41.177505  ]
 [ 36.662495   -20.303318    18.362072   ...  -8.126342   -36.36581
  -22.081217  ]
 [ 36.59075    -22.388845    19.65876    ...  -4.2893763  -40.911827
  -15.992004  ]
 ...
 [ 34.867977   -22.92767     22.160904   ...   0.57976806 -40.008064
  -14.558761  ]
 [ 34.772743   -22.89253     22.06342    ...   0.5261003  -39.92032
  -14.38967   ]
 [ 35.204098   -23.077593    21.982895   ...   0.24014686 -39.986053
  -14.688472  ]]"
"[[ 37.139343   -16.558443    16.005198   ... -14.329119   -16.913702
  -41.177505  ]
 [ 36.662495   -20.303318    18.362072   ...  -8.126342   -36.36581
  -22.081217  ]
 [ 36.59075    -22.388845    19.65876    ...  -4.2893763  -40.911827
  -15.992004  ]
 ...
 [ 34.867977   -22.92767     22.160904   ...   0.57976806 -40.008064
  -14.558761  ]
 [ 34.772743   -22.89253     22.06342    ...   0.5261003  -39.92032
  -14.38967   ]
 [ 35.20224    -23.07658     21.980295   ...   0.24013136 -39.98552
  -14.684604  ]]"
"[[ 37.139343   -16.558443    16.005198   ... -14.329119   -16.913702
  -41.177505  ]
 [ 36.662495   -20.303318    18.362072   ...  -8.126342   -36.36581
  -22.081217  ]
 [ 36.59075    -22.388845    19.65876    ...  -4.2893763  -40.911827
  -15.992004  ]
 ...
 [ 34.867977   -22.92767     22.160904   ...   0.57976806 -40.008064
  -14.558761  ]
 [ 34.772743   -22.89253     22.06342    ...   0.5261003  -39.92032
  -14.38967   ]
 [ 35.31712    -23.12836     21.930502   ...   0.10699485 -39.955265
  -14.781379  ]]"
"[[ 37.139343   -16.558443    16.005198   ... -14.329119   -16.913702
  -41.177505  ]
 [ 36.662495   -20.303318    18.362072   ...  -8.126342   -36.36581
  -22.081217  ]
 [ 36.59075    -22.388845    19.65876    ...  -4.2893763  -40.911827
  -15.992004  ]
 ...
 [ 34.867977   -22.92767     22.160904   ...   0.57976806 -40.008064
  -14.558761  ]
 [ 34.772743   -22.89253     22.06342    ...   0.5261003  -39.92032
  -14.38967   ]
 [ 35.117043   -23.044342    21.991734   ...   0.31875083 -39.979195
  -14.603913  ]]"
"[[ 37.139343   -16.558443    16.005198   ... -14.329119   -16.913702
  -41.177505  ]
 [ 36.662495   -20.303318    18.362072   ...  -8.126342   -36.36581
  -22.081217  ]
 [ 36.59075    -22.388845    19.65876    ...  -4.2893763  -40.911827
  -15.992004  ]
 ...
 [ 34.867977   -22.92767     22.160904   ...   0.57976806 -40.008064
  -14.558761  ]
 [ 34.772743   -22.89253     22.06342    ...   0.5261003  -39.92032
  -14.38967   ]
 [ 35.267323   -23.136143    21.910175   ...   0.12395857 -39.90076
  -14.731803  ]]"
"[[ 37.139343   -16.558443    16.005198   ... -14.329119   -16.913702
  -41.177505  ]
 [ 36.662495   -20.303318    18.362072   ...  -8.126342   -36.36581
  -22.081217  ]
 [ 36.59075    -22.388845    19.65876    ...  -4.2893763  -40.911827
  -15.992004  ]
 ...
 [ 34.867977   -22.92767     22.160904   ...   0.57976806 -40.008064
  -14.558761  ]
 [ 34.772743   -22.89253     22.06342    ...   0.5261003  -39.92032
  -14.38967   ]
 [ 35.30901    -23.158335    21.881336   ...   0.08131813 -39.886017
  -14.740176  ]]"
"[[ 37.139343   -16.558443    16.005198   ... -14.329119   -16.913702
  -41.177505  ]
 [ 36.662495   -20.303318    18.362072   ...  -8.126342   -36.36581
  -22.081217  ]
 [ 36.59075    -22.388845    19.65876    ...  -4.2893763  -40.911827
  -15.992004  ]
 ...
 [ 34.867977   -22.92767     22.160904   ...   0.57976806 -40.008064
  -14.558761  ]
 [ 34.772743   -22.89253     22.06342    ...   0.5261003  -39.92032
  -14.38967   ]
 [ 35.346973   -23.177761    21.881416   ...   0.05046986 -39.903793
  -14.76813   ]]"
"[[ 37.139343   -16.558443    16.005198   ... -14.329119   -16.913702
  -41.177505  ]
 [ 36.662495   -20.303318    18.362072   ...  -8.126342   -36.36581
  -22.081217  ]
 [ 36.59075    -22.388845    19.65876    ...  -4.2893763  -40.911827
  -15.992004  ]
 ...
 [ 34.867977   -22.92767     22.160904   ...   0.57976806 -40.008064
  -14.558761  ]
 [ 34.772743   -22.89253     22.06342    ...   0.5261003  -39.92032
  -14.38967   ]
 [ 35.507763   -23.236725    21.776287   ...  -0.16286732 -39.829525
  -14.873948  ]]"
"[[ 37.139343   -16.558443    16.005198   ... -14.329119   -16.913702
  -41.177505  ]
 [ 36.662495   -20.303318    18.362072   ...  -8.126342   -36.36581
  -22.081217  ]
 [ 36.59075    -22.388845    19.65876    ...  -4.2893763  -40.911827
  -15.992004  ]
 ...
 [ 34.867977   -22.92767     22.160904   ...   0.57976806 -40.008064
  -14.558761  ]
 [ 34.772743   -22.89253     22.06342    ...   0.5261003  -39.92032
  -14.38967   ]
 [ 35.90344    -23.400116    21.521854   ...  -0.6753857  -39.69568
  -15.113027  ]]"
"[[ 37.139343   -16.558443    16.005198   ... -14.329119   -16.913702
  -41.177505  ]
 [ 36.662495   -20.303318    18.362072   ...  -8.126342   -36.36581
  -22.081217  ]
 [ 36.59075    -22.388845    19.65876    ...  -4.2893763  -40.911827
  -15.992004  ]
 ...
 [ 34.867977   -22.92767     22.160904   ...   0.57976806 -40.008064
  -14.558761  ]
 [ 34.772743   -22.89253     22.06342    ...   0.5261003  -39.92032
  -14.38967   ]
 [ 35.94849    -23.43342     21.463573   ...  -0.76719904 -39.65775
  -15.13005   ]]"
"[[ 37.139343   -16.558443    16.005198   ... -14.329119   -16.913702
  -41.177505  ]
 [ 36.662495   -20.303318    18.362072   ...  -8.126342   -36.36581
  -22.081217  ]
 [ 36.59075    -22.388845    19.65876    ...  -4.2893763  -40.911827
  -15.992004  ]
 ...
 [ 34.867977   -22.92767     22.160904   ...   0.57976806 -40.008064
  -14.558761  ]
 [ 34.772743   -22.89253     22.06342    ...   0.5261003  -39.92032
  -14.38967   ]
 [ 36.161343   -23.508617    21.359581   ...  -1.0239753  -39.607994
  -15.279117  ]]"
"[[ 37.139343   -16.558443    16.005198   ... -14.329119   -16.913702
  -41.177505  ]
 [ 36.662495   -20.303318    18.362072   ...  -8.126342   -36.36581
  -22.081217  ]
 [ 36.59075    -22.388845    19.65876    ...  -4.2893763  -40.911827
  -15.992004  ]
 ...
 [ 34.867977   -22.92767     22.160904   ...   0.57976806 -40.008064
  -14.558761  ]
 [ 34.772743   -22.89253     22.06342    ...   0.5261003  -39.92032
  -14.38967   ]
 [ 35.80945    -23.371471    21.549702   ...  -0.58986413 -39.684284
  -15.04868   ]]"
"[[ 37.139343   -16.558443    16.005198   ... -14.329119   -16.913702
  -41.177505  ]
 [ 36.662495   -20.303318    18.362072   ...  -8.126342   -36.36581
  -22.081217  ]
 [ 36.59075    -22.388845    19.65876    ...  -4.2893763  -40.911827
  -15.992004  ]
 ...
 [ 34.867977   -22.92767     22.160904   ...   0.57976806 -40.008064
  -14.558761  ]
 [ 34.772743   -22.89253     22.06342    ...   0.5261003  -39.92032
  -14.38967   ]
 [ 36.10104    -23.487522    21.38422    ...  -0.9573474  -39.654484
  -15.210797  ]]"
"[[ 37.139343   -16.558443    16.005198   ... -14.329119   -16.913702
  -41.177505  ]
 [ 36.662495   -20.303318    18.362072   ...  -8.126342   -36.36581
  -22.081217  ]
 [ 36.59075    -22.388845    19.65876    ...  -4.2893763  -40.911827
  -15.992004  ]
 ...
 [ 34.867977   -22.92767     22.160904   ...   0.57976806 -40.008064
  -14.558761  ]
 [ 34.772743   -22.89253     22.06342    ...   0.5261003  -39.92032
  -14.38967   ]
 [ 35.549072   -23.265978    21.746435   ...  -0.21577813 -39.809826
  -14.907765  ]]"
"[[ 37.139343   -16.558443    16.005198   ... -14.329119   -16.913702
  -41.177505  ]
 [ 36.662495   -20.303318    18.362072   ...  -8.126342   -36.36581
  -22.081217  ]
 [ 36.59075    -22.388845    19.65876    ...  -4.2893763  -40.911827
  -15.992004  ]
 ...
 [ 34.867977   -22.92767     22.160904   ...   0.57976806 -40.008064
  -14.558761  ]
 [ 34.772743   -22.89253     22.06342    ...   0.5261003  -39.92032
  -14.38967   ]
 [ 35.482952   -23.223583    21.75402    ...  -0.15796234 -39.834187
  -14.80977   ]]"
"[[ 37.139343   -16.558443    16.005198   ... -14.329119   -16.913702
  -41.177505  ]
 [ 36.662495   -20.303318    18.362072   ...  -8.126342   -36.36581
  -22.081217  ]
 [ 36.59075    -22.388845    19.65876    ...  -4.2893763  -40.911827
  -15.992004  ]
 ...
 [ 34.867977   -22.92767     22.160904   ...   0.57976806 -40.008064
  -14.558761  ]
 [ 34.772743   -22.89253     22.06342    ...   0.5261003  -39.92032
  -14.38967   ]
 [ 35.62723    -23.268953    21.684177   ...  -0.32103541 -39.831406
  -14.885976  ]]"
"[[ 37.139343   -16.558443    16.005198   ... -14.329119   -16.913702
  -41.177505  ]
 [ 36.662495   -20.303318    18.362072   ...  -8.126342   -36.36581
  -22.081217  ]
 [ 36.59075    -22.388845    19.65876    ...  -4.2893763  -40.911827
  -15.992004  ]
 ...
 [ 34.867977   -22.92767     22.160904   ...   0.57976806 -40.008064
  -14.558761  ]
 [ 34.772743   -22.89253     22.06342    ...   0.5261003  -39.92032
  -14.38967   ]
 [ 35.694897   -23.293941    21.628326   ...  -0.41867188 -39.806114
  -14.910455  ]]"
"[[ 37.139343   -16.558443    16.005198   ... -14.329119   -16.913702
  -41.177505  ]
 [ 36.662495   -20.303318    18.362072   ...  -8.126342   -36.36581
  -22.081217  ]
 [ 36.59075    -22.388845    19.65876    ...  -4.2893763  -40.911827
  -15.992004  ]
 ...
 [ 34.867977   -22.92767     22.160904   ...   0.57976806 -40.008064
  -14.558761  ]
 [ 34.772743   -22.89253     22.06342    ...   0.5261003  -39.92032
  -14.38967   ]
 [ 35.186092   -23.113441    21.92226    ...   0.20860337 -39.88659
  -14.655183  ]]"
"[[ 37.139343   -16.558443    16.005198   ... -14.329119   -16.913702
  -41.177505  ]
 [ 36.662495   -20.303318    18.362072   ...  -8.126342   -36.36581
  -22.081217  ]
 [ 36.59075    -22.388845    19.65876    ...  -4.2893763  -40.911827
  -15.992004  ]
 ...
 [ 34.867977   -22.92767     22.160904   ...   0.57976806 -40.008064
  -14.558761  ]
 [ 34.772743   -22.89253     22.06342    ...   0.5261003  -39.92032
  -14.38967   ]
 [ 34.885437   -22.999481    22.106857   ...   0.5976583  -39.94214
  -14.527358  ]]"
"[[ 37.139343   -16.558443    16.005198   ... -14.329119   -16.913702
  -41.177505  ]
 [ 36.662495   -20.303318    18.362072   ...  -8.126342   -36.36581
  -22.081217  ]
 [ 36.59075    -22.388845    19.65876    ...  -4.2893763  -40.911827
  -15.992004  ]
 ...
 [ 34.867977   -22.92767     22.160904   ...   0.57976806 -40.008064
  -14.558761  ]
 [ 34.772743   -22.89253     22.06342    ...   0.5261003  -39.92032
  -14.38967   ]
 [ 35.649136   -23.285221    21.660994   ...  -0.36745265 -39.804104
  -14.908793  ]]"
"[[ 37.139343   -16.558443    16.005198   ... -14.329119   -16.913702
  -41.177505  ]
 [ 36.662495   -20.303318    18.362072   ...  -8.126342   -36.36581
  -22.081217  ]
 [ 36.59075    -22.388845    19.65876    ...  -4.2893763  -40.911827
  -15.992004  ]
 ...
 [ 34.867977   -22.92767     22.160904   ...   0.57976806 -40.008064
  -14.558761  ]
 [ 34.772743   -22.89253     22.06342    ...   0.5261003  -39.92032
  -14.38967   ]
 [ 35.91434    -23.390808    21.5121     ...  -0.6897582  -39.728043
  -15.072221  ]]"
"[[ 37.139343   -16.558443    16.005198   ... -14.329119   -16.913702
  -41.177505  ]
 [ 36.662495   -20.303318    18.362072   ...  -8.126342   -36.36581
  -22.081217  ]
 [ 36.59075    -22.388845    19.65876    ...  -4.2893763  -40.911827
  -15.992004  ]
 ...
 [ 34.867977   -22.92767     22.160904   ...   0.57976806 -40.008064
  -14.558761  ]
 [ 34.772743   -22.89253     22.06342    ...   0.5261003  -39.92032
  -14.38967   ]
 [ 36.059875   -23.449692    21.3764     ...  -0.945925   -39.636806
  -15.132726  ]]"
"[[ 37.139343   -16.558443    16.005198   ... -14.329119   -16.913702
  -41.177505  ]
 [ 36.662495   -20.303318    18.362072   ...  -8.126342   -36.36581
  -22.081217  ]
 [ 36.59075    -22.388845    19.65876    ...  -4.2893763  -40.911827
  -15.992004  ]
 ...
 [ 34.867977   -22.92767     22.160904   ...   0.57976806 -40.008064
  -14.558761  ]
 [ 34.772743   -22.89253     22.06342    ...   0.5261003  -39.92032
  -14.38967   ]
 [ 36.20678    -23.509686    21.2793     ...  -1.1468318  -39.58075
  -15.230821  ]]"
"[[ 37.139343   -16.558443    16.005198   ... -14.329119   -16.913702
  -41.177505  ]
 [ 36.662495   -20.303318    18.362072   ...  -8.126342   -36.36581
  -22.081217  ]
 [ 36.59075    -22.388845    19.65876    ...  -4.2893763  -40.911827
  -15.992004  ]
 ...
 [ 34.867977   -22.92767     22.160904   ...   0.57976806 -40.008064
  -14.558761  ]
 [ 34.772743   -22.89253     22.06342    ...   0.5261003  -39.92032
  -14.38967   ]
 [ 36.487774   -23.599163    21.10653    ...  -1.5149542  -39.509766
  -15.395019  ]]"
"[[ 37.139343   -16.558443    16.005198   ... -14.329119   -16.913702
  -41.177505  ]
 [ 36.662495   -20.303318    18.362072   ...  -8.126342   -36.36581
  -22.081217  ]
 [ 36.59075    -22.388845    19.65876    ...  -4.2893763  -40.911827
  -15.992004  ]
 ...
 [ 34.867977   -22.92767     22.160904   ...   0.57976806 -40.008064
  -14.558761  ]
 [ 34.772743   -22.89253     22.06342    ...   0.5261003  -39.92032
  -14.38967   ]
 [ 36.300716   -23.495426    21.128998   ...  -1.4287734  -39.538197
  -15.221484  ]]"
"[[ 37.139343   -16.558443    16.005198   ... -14.329119   -16.913702
  -41.177505  ]
 [ 36.662495   -20.303318    18.362072   ...  -8.126342   -36.36581
  -22.081217  ]
 [ 36.59075    -22.388845    19.65876    ...  -4.2893763  -40.911827
  -15.992004  ]
 ...
 [ 34.867977   -22.92767     22.160904   ...   0.57976806 -40.008064
  -14.558761  ]
 [ 34.772743   -22.89253     22.06342    ...   0.5261003  -39.92032
  -14.38967   ]
 [ 35.439617   -23.145607    21.556461   ...  -0.4384301  -39.79129
  -14.620193  ]]"
"[[ 37.139343   -16.558443    16.005198   ... -14.329119   -16.913702
  -41.177505  ]
 [ 36.662495   -20.303318    18.362072   ...  -8.126342   -36.36581
  -22.081217  ]
 [ 36.59075    -22.388845    19.65876    ...  -4.2893763  -40.911827
  -15.992004  ]
 ...
 [ 34.867977   -22.92767     22.160904   ...   0.57976806 -40.008064
  -14.558761  ]
 [ 34.772743   -22.89253     22.06342    ...   0.5261003  -39.92032
  -14.38967   ]
 [ 35.817234   -23.278332    21.368315   ...  -0.8728452  -39.67946
  -14.8800955 ]]"
"[[ 37.139343   -16.558443    16.005198   ... -14.329119   -16.913702
  -41.177505  ]
 [ 36.662495   -20.303318    18.362072   ...  -8.126342   -36.36581
  -22.081217  ]
 [ 36.59075    -22.388845    19.65876    ...  -4.2893763  -40.911827
  -15.992004  ]
 ...
 [ 34.867977   -22.92767     22.160904   ...   0.57976806 -40.008064
  -14.558761  ]
 [ 34.772743   -22.89253     22.06342    ...   0.5261003  -39.92032
  -14.38967   ]
 [ 36.06768    -23.381035    21.234274   ...  -1.1592274  -39.60321
  -15.037007  ]]"
"[[ 37.139343   -16.558443    16.005198   ... -14.329119   -16.913702
  -41.177505  ]
 [ 36.662495   -20.303318    18.362072   ...  -8.126342   -36.36581
  -22.081217  ]
 [ 36.59075    -22.388845    19.65876    ...  -4.2893763  -40.911827
  -15.992004  ]
 ...
 [ 34.867977   -22.92767     22.160904   ...   0.57976806 -40.008064
  -14.558761  ]
 [ 34.772743   -22.89253     22.06342    ...   0.5261003  -39.92032
  -14.38967   ]
 [ 36.03581    -23.368061    21.250046   ...  -1.1251293  -39.605595
  -15.026801  ]]"
"[[ 37.139343   -16.558443    16.005198   ... -14.329119   -16.913702
  -41.177505  ]
 [ 36.662495   -20.303318    18.362072   ...  -8.126342   -36.36581
  -22.081217  ]
 [ 36.59075    -22.388845    19.65876    ...  -4.2893763  -40.911827
  -15.992004  ]
 ...
 [ 34.867977   -22.92767     22.160904   ...   0.57976806 -40.008064
  -14.558761  ]
 [ 34.772743   -22.89253     22.06342    ...   0.5261003  -39.92032
  -14.38967   ]
 [ 36.770943   -23.663578    20.778358   ...  -2.1885037  -39.278862
  -15.562282  ]]"
"[[ 37.139343   -16.558443    16.005198   ... -14.329119   -16.913702
  -41.177505  ]
 [ 36.662495   -20.303318    18.362072   ...  -8.126342   -36.36581
  -22.081217  ]
 [ 36.59075    -22.388845    19.65876    ...  -4.2893763  -40.911827
  -15.992004  ]
 ...
 [ 34.867977   -22.92767     22.160904   ...   0.57976806 -40.008064
  -14.558761  ]
 [ 34.772743   -22.89253     22.06342    ...   0.5261003  -39.92032
  -14.38967   ]
 [ 36.886063   -23.711529    20.67097    ...  -2.4626489  -39.19364
  -15.682179  ]]"
"[[ 37.139343   -16.558443    16.005198   ... -14.329119   -16.913702
  -41.177505  ]
 [ 36.662495   -20.303318    18.362072   ...  -8.126342   -36.36581
  -22.081217  ]
 [ 36.59075    -22.388845    19.65876    ...  -4.2893763  -40.911827
  -15.992004  ]
 ...
 [ 34.867977   -22.92767     22.160904   ...   0.57976806 -40.008064
  -14.558761  ]
 [ 34.772743   -22.89253     22.06342    ...   0.5261003  -39.92032
  -14.38967   ]
 [ 36.93918    -23.733677    20.627628   ...  -2.5728376  -39.14519
  -15.746573  ]]"
"[[ 37.139343   -16.558443    16.005198   ... -14.329119   -16.913702
  -41.177505  ]
 [ 36.662495   -20.303318    18.362072   ...  -8.126342   -36.36581
  -22.081217  ]
 [ 36.59075    -22.388845    19.65876    ...  -4.2893763  -40.911827
  -15.992004  ]
 ...
 [ 34.867977   -22.92767     22.160904   ...   0.57976806 -40.008064
  -14.558761  ]
 [ 34.772743   -22.89253     22.06342    ...   0.5261003  -39.92032
  -14.38967   ]
 [ 37.05644    -23.796494    20.551043   ...  -2.8147035  -39.01924
  -15.942721  ]]"
"[[ 37.139343   -16.558443    16.005198   ... -14.329119   -16.913702
  -41.177505  ]
 [ 36.662495   -20.303318    18.362072   ...  -8.126342   -36.36581
  -22.081217  ]
 [ 36.59075    -22.388845    19.65876    ...  -4.2893763  -40.911827
  -15.992004  ]
 ...
 [ 34.867977   -22.92767     22.160904   ...   0.57976806 -40.008064
  -14.558761  ]
 [ 34.772743   -22.89253     22.06342    ...   0.5261003  -39.92032
  -14.38967   ]
 [ 37.215965   -23.885279    20.457333   ...  -3.1389449  -38.720787
  -16.366415  ]]"
"[[ 37.139343   -16.558443    16.005198   ... -14.329119   -16.913702
  -41.177505  ]
 [ 36.662495   -20.303318    18.362072   ...  -8.126342   -36.36581
  -22.081217  ]
 [ 36.59075    -22.388845    19.65876    ...  -4.2893763  -40.911827
  -15.992004  ]
 ...
 [ 34.867977   -22.92767     22.160904   ...   0.57976806 -40.008064
  -14.558761  ]
 [ 34.772743   -22.89253     22.06342    ...   0.5261003  -39.92032
  -14.38967   ]
 [ 37.200047   -23.890633    20.505205   ...  -3.0447118  -38.802444
  -16.330835  ]]"
"[[ 37.139343   -16.558443    16.005198   ... -14.329119   -16.913702
  -41.177505  ]
 [ 36.662495   -20.303318    18.362072   ...  -8.126342   -36.36581
  -22.081217  ]
 [ 36.59075    -22.388845    19.65876    ...  -4.2893763  -40.911827
  -15.992004  ]
 ...
 [ 34.867977   -22.92767     22.160904   ...   0.57976806 -40.008064
  -14.558761  ]
 [ 34.772743   -22.89253     22.06342    ...   0.5261003  -39.92032
  -14.38967   ]
 [ 37.18772    -23.90382     20.563313   ...  -2.93431    -38.869667
  -16.320608  ]]"
"[[ 37.139343   -16.558443    16.005198   ... -14.329119   -16.913702
  -41.177505  ]
 [ 36.662495   -20.303318    18.362072   ...  -8.126342   -36.36581
  -22.081217  ]
 [ 36.59075    -22.388845    19.65876    ...  -4.2893763  -40.911827
  -15.992004  ]
 ...
 [ 34.867977   -22.92767     22.160904   ...   0.57976806 -40.008064
  -14.558761  ]
 [ 34.772743   -22.89253     22.06342    ...   0.5261003  -39.92032
  -14.38967   ]
 [ 37.210087   -23.9246      20.586788   ...  -2.918634   -38.873196
  -16.385244  ]]"
"[[ 37.139343   -16.558443    16.005198   ... -14.329119   -16.913702
  -41.177505  ]
 [ 36.662495   -20.303318    18.362072   ...  -8.126342   -36.36581
  -22.081217  ]
 [ 36.59075    -22.388845    19.65876    ...  -4.2893763  -40.911827
  -15.992004  ]
 ...
 [ 34.867977   -22.92767     22.160904   ...   0.57976806 -40.008064
  -14.558761  ]
 [ 34.772743   -22.89253     22.06342    ...   0.5261003  -39.92032
  -14.38967   ]
 [ 37.135532   -23.916977    20.686707   ...  -2.661642   -39.00557
  -16.290611  ]]"
"[[ 37.139343   -16.558443    16.005198   ... -14.329119   -16.913702
  -41.177505  ]
 [ 36.662495   -20.303318    18.362072   ...  -8.126342   -36.36581
  -22.081217  ]
 [ 36.59075    -22.388845    19.65876    ...  -4.2893763  -40.911827
  -15.992004  ]
 ...
 [ 34.867977   -22.92767     22.160904   ...   0.57976806 -40.008064
  -14.558761  ]
 [ 34.772743   -22.89253     22.06342    ...   0.5261003  -39.92032
  -14.38967   ]
 [ 36.972164   -23.88516     20.794498   ...  -2.350954   -39.11547
  -16.163101  ]]"
"[[ 37.139343   -16.558443    16.005198   ... -14.329119   -16.913702
  -41.177505  ]
 [ 36.662495   -20.303318    18.362072   ...  -8.126342   -36.36581
  -22.081217  ]
 [ 36.59075    -22.388845    19.65876    ...  -4.2893763  -40.911827
  -15.992004  ]
 ...
 [ 34.867977   -22.92767     22.160904   ...   0.57976806 -40.008064
  -14.558761  ]
 [ 34.772743   -22.89253     22.06342    ...   0.5261003  -39.92032
  -14.38967   ]
 [ 37.040142   -23.898106    20.759624   ...  -2.4217377  -39.112976
  -16.160156  ]]"
"[[ 37.139343   -16.558443    16.005198   ... -14.329119   -16.913702
  -41.177505  ]
 [ 36.662495   -20.303318    18.362072   ...  -8.126342   -36.36581
  -22.081217  ]
 [ 36.59075    -22.388845    19.65876    ...  -4.2893763  -40.911827
  -15.992004  ]
 ...
 [ 34.867977   -22.92767     22.160904   ...   0.57976806 -40.008064
  -14.558761  ]
 [ 34.772743   -22.89253     22.06342    ...   0.5261003  -39.92032
  -14.38967   ]
 [ 36.955647   -23.871792    20.812      ...  -2.2863183  -39.187958
  -16.04792   ]]"
"[[ 37.139343   -16.558443    16.005198   ... -14.329119   -16.913702
  -41.177505  ]
 [ 36.662495   -20.303318    18.362072   ...  -8.126342   -36.36581
  -22.081217  ]
 [ 36.59075    -22.388845    19.65876    ...  -4.2893763  -40.911827
  -15.992004  ]
 ...
 [ 34.867977   -22.92767     22.160904   ...   0.57976806 -40.008064
  -14.558761  ]
 [ 34.772743   -22.89253     22.06342    ...   0.5261003  -39.92032
  -14.38967   ]
 [ 37.00887    -23.877148    20.751114   ...  -2.426983   -39.116966
  -16.105488  ]]"
"[[ 37.139343   -16.558443    16.005198   ... -14.329119   -16.913702
  -41.177505  ]
 [ 36.662495   -20.303318    18.362072   ...  -8.126342   -36.36581
  -22.081217  ]
 [ 36.59075    -22.388845    19.65876    ...  -4.2893763  -40.911827
  -15.992004  ]
 ...
 [ 34.867977   -22.92767     22.160904   ...   0.57976806 -40.008064
  -14.558761  ]
 [ 34.772743   -22.89253     22.06342    ...   0.5261003  -39.92032
  -14.38967   ]
 [ 36.900623   -23.829008    20.78724    ...  -2.3120942  -39.206787
  -15.954198  ]]"
"[[ 37.139343   -16.558443    16.005198   ... -14.329119   -16.913702
  -41.177505  ]
 [ 36.662495   -20.303318    18.362072   ...  -8.126342   -36.36581
  -22.081217  ]
 [ 36.59075    -22.388845    19.65876    ...  -4.2893763  -40.911827
  -15.992004  ]
 ...
 [ 34.867977   -22.92767     22.160904   ...   0.57976806 -40.008064
  -14.558761  ]
 [ 34.772743   -22.89253     22.06342    ...   0.5261003  -39.92032
  -14.38967   ]
 [ 36.813313   -23.791758    20.833942   ...  -2.1824424  -39.269142
  -15.842986  ]]"
"[[ 37.139343   -16.558443    16.005198   ... -14.329119   -16.913702
  -41.177505  ]
 [ 36.662495   -20.303318    18.362072   ...  -8.126342   -36.36581
  -22.081217  ]
 [ 36.59075    -22.388845    19.65876    ...  -4.2893763  -40.911827
  -15.992004  ]
 ...
 [ 34.867977   -22.92767     22.160904   ...   0.57976806 -40.008064
  -14.558761  ]
 [ 34.772743   -22.89253     22.06342    ...   0.5261003  -39.92032
  -14.38967   ]
 [ 36.85407    -23.79381     20.806944   ...  -2.2443037  -39.24093
  -15.871707  ]]"
"[[ 37.139343   -16.558443    16.005198   ... -14.329119   -16.913702
  -41.177505  ]
 [ 36.662495   -20.303318    18.362072   ...  -8.126342   -36.36581
  -22.081217  ]
 [ 36.59075    -22.388845    19.65876    ...  -4.2893763  -40.911827
  -15.992004  ]
 ...
 [ 34.867977   -22.92767     22.160904   ...   0.57976806 -40.008064
  -14.558761  ]
 [ 34.772743   -22.89253     22.06342    ...   0.5261003  -39.92032
  -14.38967   ]
 [ 36.89066    -23.811672    20.791964   ...  -2.289879   -39.21704
  -15.920711  ]]"
"[[ 37.139343   -16.558443    16.005198   ... -14.329119   -16.913702
  -41.177505  ]
 [ 36.662495   -20.303318    18.362072   ...  -8.126342   -36.36581
  -22.081217  ]
 [ 36.59075    -22.388845    19.65876    ...  -4.2893763  -40.911827
  -15.992004  ]
 ...
 [ 34.867977   -22.92767     22.160904   ...   0.57976806 -40.008064
  -14.558761  ]
 [ 34.772743   -22.89253     22.06342    ...   0.5261003  -39.92032
  -14.38967   ]
 [ 36.936325   -23.828035    20.758      ...  -2.3732998  -39.18392
  -15.966697  ]]"
"[[ 37.139343   -16.558443    16.005198   ... -14.329119   -16.913702
  -41.177505  ]
 [ 36.662495   -20.303318    18.362072   ...  -8.126342   -36.36581
  -22.081217  ]
 [ 36.59075    -22.388845    19.65876    ...  -4.2893763  -40.911827
  -15.992004  ]
 ...
 [ 34.867977   -22.92767     22.160904   ...   0.57976806 -40.008064
  -14.558761  ]
 [ 34.772743   -22.89253     22.06342    ...   0.5261003  -39.92032
  -14.38967   ]
 [ 36.97967    -23.845615    20.728294   ...  -2.4514399  -39.148098
  -16.019226  ]]"
"[[ 37.139343   -16.558443    16.005198   ... -14.329119   -16.913702
  -41.177505  ]
 [ 36.662495   -20.303318    18.362072   ...  -8.126342   -36.36581
  -22.081217  ]
 [ 36.59075    -22.388845    19.65876    ...  -4.2893763  -40.911827
  -15.992004  ]
 ...
 [ 34.867977   -22.92767     22.160904   ...   0.57976806 -40.008064
  -14.558761  ]
 [ 34.772743   -22.89253     22.06342    ...   0.5261003  -39.92032
  -14.38967   ]
 [ 37.057995   -23.880245    20.688602   ...  -2.573858   -39.075737
  -16.137886  ]]"
"[[ 37.139343   -16.558443    16.005198   ... -14.329119   -16.913702
  -41.177505  ]
 [ 36.662495   -20.303318    18.362072   ...  -8.126342   -36.36581
  -22.081217  ]
 [ 36.59075    -22.388845    19.65876    ...  -4.2893763  -40.911827
  -15.992004  ]
 ...
 [ 34.867977   -22.92767     22.160904   ...   0.57976806 -40.008064
  -14.558761  ]
 [ 34.772743   -22.89253     22.06342    ...   0.5261003  -39.92032
  -14.38967   ]
 [ 37.096508   -23.893202    20.692875   ...  -2.6380563  -39.005005
  -16.277102  ]]"
"[[ 37.139343   -16.558443    16.005198   ... -14.329119   -16.913702
  -41.177505  ]
 [ 36.662495   -20.303318    18.362072   ...  -8.126342   -36.36581
  -22.081217  ]
 [ 36.59075    -22.388845    19.65876    ...  -4.2893763  -40.911827
  -15.992004  ]
 ...
 [ 34.867977   -22.92767     22.160904   ...   0.57976806 -40.008064
  -14.558761  ]
 [ 34.772743   -22.89253     22.06342    ...   0.5261003  -39.92032
  -14.38967   ]
 [ 36.92307    -23.810257    20.903357   ...  -2.1967072  -39.23073
  -16.113913  ]]"
"[[ 37.139343   -16.558443    16.005198   ... -14.329119   -16.913702
  -41.177505  ]
 [ 36.662495   -20.303318    18.362072   ...  -8.126342   -36.36581
  -22.081217  ]
 [ 36.59075    -22.388845    19.65876    ...  -4.2893763  -40.911827
  -15.992004  ]
 ...
 [ 34.867977   -22.92767     22.160904   ...   0.57976806 -40.008064
  -14.558761  ]
 [ 34.772743   -22.89253     22.06342    ...   0.5261003  -39.92032
  -14.38967   ]
 [ 36.931107   -23.818478    20.85905    ...  -2.2607899  -39.202744
  -16.089119  ]]"
"[[ 37.139343   -16.558443    16.005198   ... -14.329119   -16.913702
  -41.177505  ]
